Freq(Hz), SPL(dB), Phase(degrees)
20.141602, 70.558, 178.7546
20.507812, 70.501, 178.8721
20.874023, 71.324, 176.9693
21.240234, 72.345, 174.2127
21.606445, 73.461, 170.7094
21.972656, 74.607, 166.5795
22.338867, 75.751, 161.9525
22.705078, 76.878, 156.9592
23.071289, 77.982, 151.7215
23.437500, 79.060, 146.3408
23.803711, 80.113, 140.8919
24.169922, 81.140, 135.4226
24.536132, 82.142, 129.9599
24.902343, 83.118, 124.5171
25.268554, 84.069, 119.0989
25.634765, 84.993, 113.7023
26.000976, 85.889, 108.3145
26.367187, 86.754, 102.9109
26.733398, 87.587, 97.4559
27.099609, 88.384, 91.9066
27.465820, 89.141, 86.2178
27.832031, 89.855, 80.3472
28.198242, 90.522, 74.2581
28.564452, 91.139, 67.9221
28.930663, 91.702, 61.3217
29.296874, 92.209, 54.4549
29.663085, 92.657, 47.3398
30.029296, 93.045, 40.0172
30.395507, 93.374, 32.5491
30.761718, 93.646, 25.0121
31.127929, 93.865, 17.4865
31.494140, 94.036, 10.0443
31.860351, 94.166, 2.7394
32.226562, 94.259, -4.3973
32.592772, 94.319, -11.3555
32.958983, 94.348, -18.1357
33.325194, 94.343, -24.7368
33.691405, 94.304, -31.1429
34.057616, 94.225, -37.3154
34.423827, 94.103, -43.1914
34.790038, 93.936, -48.6892
35.156249, 93.722, -53.7173
35.522460, 93.461, -58.1840
35.888671, 93.155, -62.0077
36.254882, 92.807, -65.1237
36.621092, 92.422, -67.4885
36.987303, 92.005, -69.0818
37.353514, 91.563, -69.9062
37.719725, 91.103, -69.9865
38.085936, 90.634, -69.3680
38.452147, 90.166, -68.1152
38.818358, 89.709, -66.3098
39.184569, 89.275, -64.0485
39.550780, 88.877, -61.4398
39.916991, 88.526, -58.6006
40.283201, 88.234, -55.6514
40.649412, 88.008, -52.7126
41.015623, 87.852, -49.8989
41.381834, 87.766, -47.3148
41.748045, 87.743, -45.0508
42.114256, 87.774, -43.1793
42.480467, 87.848, -41.7533
42.846678, 87.950, -40.8047
43.212889, 88.068, -40.3447
43.579100, 88.191, -40.3647
43.945311, 88.307, -40.8379
44.311521, 88.408, -41.7212
44.677732, 88.487, -42.9590
45.043943, 88.539, -44.4855
45.410154, 88.561, -46.2291
45.776365, 88.549, -48.1157
46.142576, 88.504, -50.0722
46.508787, 88.425, -52.0298
46.874998, 88.313, -53.9263
47.241209, 88.170, -55.7082
47.607420, 87.998, -57.3318
47.973631, 87.798, -58.7635
48.339841, 87.575, -59.9794
48.706052, 87.330, -60.9647
49.072263, 87.066, -61.7126
49.438474, 86.787, -62.2228
49.804685, 86.494, -62.5000
50.170896, 86.191, -62.5522
50.537107, 85.879, -62.3894
50.903318, 85.562, -62.0222
51.269529, 85.242, -61.4609
51.635740, 84.921, -60.7154
52.001951, 84.600, -59.7944
52.368161, 84.283, -58.7061
52.734372, 83.971, -57.4586
53.100583, 83.666, -56.0604
53.466794, 83.372, -54.5214
53.833005, 83.090, -52.8527
54.199216, 82.824, -51.0675
54.565427, 82.575, -49.1816
54.931638, 82.347, -47.2123
55.297849, 82.141, -45.1790
55.664060, 81.960, -43.1024
56.030271, 81.804, -41.0037
56.396481, 81.674, -38.9043
56.762692, 81.572, -36.8246
57.128903, 81.495, -34.7833
57.495114, 81.443, -32.7971
57.861325, 81.414, -30.8796
58.227536, 81.405, -29.0415
58.593747, 81.415, -27.2903
58.959958, 81.442, -25.6302
59.326169, 81.481, -24.0627
59.692380, 81.532, -22.5867
60.058591, 81.592, -21.1993
60.424801, 81.659, -19.8962
60.791012, 81.732, -18.6722
61.157223, 81.810, -17.5223
61.523434, 81.891, -16.4414
61.889645, 81.974, -15.4253
62.255856, 82.059, -14.4706
62.622067, 82.145, -13.5752
62.988278, 82.232, -12.7380
63.354489, 82.319, -11.9587
63.720700, 82.406, -11.2379
64.086910, 82.490, -10.5765
64.453121, 82.573, -9.9755
64.819332, 82.653, -9.4354
65.185543, 82.730, -8.9565
65.551754, 82.802, -8.5381
65.917965, 82.869, -8.1786
66.284176, 82.931, -7.8754
66.650387, 82.987, -7.6252
67.016598, 83.036, -7.4240
67.382809, 83.079, -7.2667
67.749020, 83.114, -7.1483
68.115230, 83.143, -7.0632
68.481441, 83.165, -7.0060
68.847652, 83.181, -6.9711
69.213863, 83.189, -6.9533
69.580074, 83.192, -6.9476
69.946285, 83.188, -6.9493
70.312496, 83.178, -6.9545
70.678707, 83.163, -6.9591
71.044918, 83.142, -6.9598
71.411129, 83.116, -6.9536
71.777340, 83.085, -6.9376
72.143550, 83.050, -6.9094
72.509761, 83.010, -6.8667
72.875972, 82.966, -6.8070
73.242183, 82.918, -6.7285
73.608394, 82.866, -6.6290
73.974605, 82.810, -6.5067
74.340816, 82.751, -6.3596
74.707027, 82.687, -6.1859
75.073238, 82.621, -5.9838
75.439449, 82.550, -5.7518
75.805660, 82.477, -5.4885
76.171870, 82.401, -5.1924
76.538081, 82.323, -4.8623
76.904292, 82.241, -4.4974
77.270503, 82.158, -4.0970
77.636714, 82.073, -3.6606
78.002925, 81.986, -3.1880
78.369136, 81.898, -2.6793
78.735347, 81.809, -2.1348
79.101558, 81.719, -1.5553
79.467769, 81.629, -0.9417
79.833980, 81.540, -0.2954
80.200190, 81.451, 0.3820
80.566401, 81.363, 1.0885
80.932612, 81.277, 1.8219
81.298823, 81.192, 2.5797
81.665034, 81.110, 3.3589
82.031245, 81.030, 4.1564
82.397456, 80.953, 4.9689
82.763667, 80.879, 5.7929
83.129878, 80.809, 6.6246
83.496089, 80.742, 7.4604
83.862300, 80.679, 8.2964
84.228510, 80.620, 9.1289
84.594721, 80.564, 9.9541
84.960932, 80.512, 10.7687
85.327143, 80.464, 11.5693
85.693354, 80.418, 12.3531
86.059565, 80.376, 13.1177
86.425776, 80.337, 13.8606
86.791987, 80.299, 14.5804
87.158198, 80.264, 15.2758
87.524409, 80.230, 15.9460
87.890619, 80.197, 16.5909
88.256830, 80.164, 17.2108
88.623041, 80.131, 17.8065
88.989252, 80.098, 18.3792
89.355463, 80.063, 18.9305
89.721674, 80.027, 19.4626
90.087885, 79.988, 19.9780
90.454096, 79.947, 20.4794
90.820307, 79.904, 20.9696
91.186518, 79.857, 21.4521
91.552729, 79.806, 21.9303
91.918939, 79.752, 22.4074
92.285150, 79.694, 22.8871
92.651361, 79.632, 23.3728
93.017572, 79.565, 23.8679
93.383783, 79.494, 24.3756
93.749994, 79.419, 24.8992
94.116205, 79.339, 25.4412
94.482416, 79.255, 26.0045
94.848627, 79.167, 26.5912
95.214838, 79.074, 27.2032
95.581049, 78.978, 27.8423
95.947259, 78.878, 28.5097
96.313470, 78.774, 29.2062
96.679681, 78.667, 29.9325
97.045892, 78.557, 30.6886
97.412103, 78.443, 31.4743
97.778314, 78.328, 32.2892
98.144525, 78.209, 33.1325
98.510736, 78.089, 34.0029
98.876947, 77.967, 34.8990
99.243158, 77.843, 35.8193
99.609369, 77.717, 36.7617
99.975579, 77.591, 37.7244
100.341790, 77.464, 38.7050
100.708001, 77.336, 39.7014
101.074212, 77.208, 40.7113
101.440423, 77.079, 41.7322
101.806634, 76.950, 42.7619
102.172845, 76.822, 43.7984
102.539056, 76.693, 44.8394
102.905267, 76.565, 45.8832
103.271478, 76.437, 46.9281
103.637689, 76.310, 47.9727
104.003899, 76.183, 49.0157
104.370110, 76.056, 50.0565
104.736321, 75.930, 51.0942
105.102532, 75.804, 52.1287
105.468743, 75.678, 53.1598
105.834954, 75.552, 54.1876
106.201165, 75.426, 55.2127
106.567376, 75.300, 56.2356
106.933587, 75.174, 57.2571
107.299798, 75.047, 58.2781
107.666009, 74.920, 59.2998
108.032219, 74.793, 60.3233
108.398430, 74.664, 61.3498
108.764641, 74.535, 62.3804
109.130852, 74.406, 63.4166
109.497063, 74.275, 64.4594
109.863274, 74.143, 65.5101
110.229485, 74.011, 66.5697
110.595696, 73.877, 67.6394
110.961907, 73.742, 68.7199
111.328118, 73.605, 69.8122
111.694328, 73.468, 70.9168
112.060539, 73.329, 72.0344
112.426750, 73.190, 73.1652
112.792961, 73.049, 74.3097
113.159172, 72.906, 75.4678
113.525383, 72.763, 76.6397
113.891594, 72.619, 77.8250
114.257805, 72.473, 79.0236
114.624016, 72.327, 80.2350
114.990227, 72.179, 81.4586
115.356438, 72.031, 82.6941
115.722648, 71.882, 83.9406
116.088859, 71.732, 85.1976
116.455070, 71.581, 86.4642
116.821281, 71.430, 87.7397
117.187492, 71.278, 89.0234
117.553703, 71.126, 90.3146
117.919914, 70.974, 91.6125
118.286125, 70.820, 92.9165
118.652336, 70.667, 94.2259
119.018547, 70.513, 95.5403
119.384758, 70.360, 96.8590
119.750968, 70.205, 98.1818
120.117179, 70.051, 99.5082
120.483390, 69.897, 100.8379
120.849601, 69.742, 102.1707
121.215812, 69.588, 103.5064
121.582023, 69.433, 104.8450
121.948234, 69.278, 106.1863
122.314445, 69.124, 107.5305
122.680656, 68.969, 108.8776
123.046867, 68.814, 110.2276
123.413078, 68.660, 111.5807
123.779288, 68.505, 112.9373
124.145499, 68.350, 114.2973
124.511710, 68.195, 115.6611
124.877921, 68.040, 117.0291
125.244132, 67.885, 118.4014
125.610343, 67.730, 119.7783
125.976554, 67.575, 121.1600
126.342765, 67.420, 122.5470
126.708976, 67.265, 123.9395
127.075187, 67.110, 125.3376
127.441398, 66.954, 126.7417
127.807608, 66.799, 128.1520
128.173819, 66.643, 129.5685
128.540030, 66.488, 130.9917
128.906241, 66.332, 132.4215
129.272452, 66.176, 133.8581
129.638663, 66.020, 135.3015
130.004874, 65.863, 136.7519
130.371085, 65.707, 138.2092
130.737296, 65.551, 139.6735
131.103507, 65.394, 141.1447
131.469718, 65.237, 142.6228
131.835928, 65.081, 144.1077
132.202139, 64.924, 145.5994
132.568350, 64.767, 147.0977
132.934561, 64.610, 148.6026
133.300772, 64.453, 150.1139
133.666983, 64.295, 151.6314
134.033194, 64.138, 153.1551
134.399405, 63.981, 154.6846
134.765616, 63.824, 156.2200
135.131827, 63.666, 157.7609
135.498037, 63.509, 159.3072
135.864248, 63.352, 160.8587
136.230459, 63.194, 162.4153
136.596670, 63.037, 163.9767
136.962881, 62.880, 165.5427
137.329092, 62.723, 167.1132
137.695303, 62.566, 168.6880
138.061514, 62.409, 170.2670
138.427725, 62.252, 171.8498
138.793936, 62.095, 173.4364
139.160147, 61.938, 175.0266
139.526357, 61.782, 176.6203
139.892568, 61.625, 178.2173
140.258779, 61.469, 179.8175
140.624990, 61.313, -178.5792
140.991201, 61.157, -176.9729
141.357412, 61.001, -175.3636
141.723623, 60.846, -173.7516
142.089834, 60.691, -172.1367
142.456045, 60.535, -170.5191
142.822256, 60.380, -168.8988
143.188467, 60.226, -167.2757
143.554677, 60.071, -165.6498
143.920888, 59.917, -164.0211
144.287099, 59.763, -162.3896
144.653310, 59.609, -160.7551
145.019521, 59.455, -159.1175
145.385732, 59.301, -157.4768
145.751943, 59.148, -155.8327
146.118154, 58.995, -154.1851
146.484365, 58.842, -152.5337
146.850576, 58.689, -150.8784
147.216787, 58.536, -149.2190
147.582997, 58.383, -147.5550
147.949208, 58.231, -145.8864
148.315419, 58.078, -144.2128
148.681630, 57.926, -142.5339
149.047841, 57.774, -140.8494
149.414052, 57.621, -139.1590
149.780263, 57.469, -137.4623
150.146474, 57.317, -135.7591
150.512685, 57.164, -134.0490
150.878896, 57.012, -132.3318
151.245107, 56.860, -130.6071
151.611317, 56.707, -128.8746
151.977528, 56.555, -127.1342
152.343739, 56.402, -125.3855
152.709950, 56.249, -123.6283
153.076161, 56.096, -121.8625
153.442372, 55.943, -120.0878
153.808583, 55.790, -118.3041
154.174794, 55.636, -116.5113
154.541005, 55.482, -114.7093
154.907216, 55.328, -112.8981
155.273427, 55.174, -111.0776
155.639637, 55.019, -109.2479
156.005848, 54.865, -107.4089
156.372059, 54.710, -105.5609
156.738270, 54.554, -103.7040
157.104481, 54.399, -101.8382
157.470692, 54.243, -99.9639
157.836903, 54.087, -98.0813
158.203114, 53.930, -96.1905
158.569325, 53.773, -94.2920
158.935536, 53.616, -92.3861
159.301746, 53.459, -90.4732
159.667957, 53.301, -88.5536
160.034168, 53.144, -86.6279
160.400379, 52.985, -84.6964
160.766590, 52.827, -82.7597
161.132801, 52.668, -80.8184
161.499012, 52.509, -78.8728
161.865223, 52.350, -76.9237
162.231434, 52.190, -74.9716
162.597645, 52.031, -73.0171
162.963856, 51.871, -71.0608
163.330066, 51.710, -69.1034
163.696277, 51.550, -67.1456
164.062488, 51.390, -65.1879
164.428699, 51.229, -63.2310
164.794910, 51.068, -61.2757
165.161121, 50.907, -59.3226
165.527332, 50.745, -57.3723
165.893543, 50.584, -55.4257
166.259754, 50.423, -53.4833
166.625965, 50.261, -51.5459
166.992176, 50.099, -49.6141
167.358386, 49.937, -47.6887
167.724597, 49.775, -45.7702
168.090808, 49.614, -43.8595
168.457019, 49.452, -41.9571
168.823230, 49.289, -40.0637
169.189441, 49.127, -38.1800
169.555652, 48.965, -36.3066
169.921863, 48.803, -34.4442
170.288074, 48.641, -32.5935
170.654285, 48.479, -30.7550
171.020496, 48.317, -28.9295
171.386706, 48.156, -27.1175
171.752917, 47.994, -25.3196
172.119128, 47.832, -23.5366
172.485339, 47.670, -21.7691
172.851550, 47.509, -20.0176
173.217761, 47.347, -18.2828
173.583972, 47.186, -16.5654
173.950183, 47.025, -14.8660
174.316394, 46.864, -13.1851
174.682605, 46.703, -11.5236
175.048816, 46.543, -9.8819
175.415026, 46.383, -8.2608
175.781237, 46.223, -6.6609
176.147448, 46.063, -5.0829
176.513659, 45.903, -3.5273
176.879870, 45.744, -1.9949
177.246081, 45.585, -0.4863
177.612292, 45.426, 0.9979
177.978503, 45.268, 2.4570
178.344714, 45.110, 3.8905
178.710925, 44.952, 5.2976
179.077136, 44.795, 6.6778
179.443346, 44.638, 8.0304
179.809557, 44.482, 9.3550
180.175768, 44.326, 10.6508
180.541979, 44.171, 11.9175
180.908190, 44.016, 13.1544
181.274401, 43.862, 14.3610
181.640612, 43.708, 15.5369
182.006823, 43.555, 16.6817
182.373034, 43.402, 17.7948
182.739245, 43.250, 18.8760
183.105455, 43.098, 19.9249
183.471666, 42.947, 20.9412
183.837877, 42.797, 21.9245
184.204088, 42.648, 22.8748
184.570299, 42.499, 23.7917
184.936510, 42.351, 24.6752
185.302721, 42.203, 25.5251
185.668932, 42.057, 26.3414
186.035143, 41.911, 27.1241
186.401354, 41.766, 27.8733
186.767565, 41.621, 28.5889
187.133775, 41.478, 29.2712
187.499986, 41.335, 29.9203
187.866197, 41.193, 30.5365
188.232408, 41.053, 31.1201
188.598619, 40.912, 31.6712
188.964830, 40.773, 32.1905
189.331041, 40.635, 32.6782
189.697252, 40.497, 33.1347
190.063463, 40.361, 33.5607
190.429674, 40.225, 33.9567
190.795885, 40.091, 34.3232
191.162095, 39.957, 34.6608
191.528306, 39.824, 34.9702
191.894517, 39.692, 35.2522
192.260728, 39.561, 35.5074
192.626939, 39.432, 35.7366
192.993150, 39.303, 35.9406
193.359361, 39.175, 36.1202
193.725572, 39.048, 36.2762
194.091783, 38.922, 36.4095
194.457994, 38.797, 36.5211
194.824205, 38.674, 36.6117
195.190415, 38.551, 36.6824
195.556626, 38.429, 36.7340
195.922837, 38.309, 36.7676
196.289048, 38.189, 36.7840
196.655259, 38.070, 36.7843
197.021470, 37.953, 36.7694
197.387681, 37.837, 36.7402
197.753892, 37.722, 36.6978
198.120103, 37.608, 36.6432
198.486314, 37.495, 36.5772
198.852525, 37.383, 36.5010
199.218735, 37.272, 36.4153
199.584946, 37.163, 36.3212
199.951157, 37.055, 36.2195
200.317368, 36.948, 36.1113
200.683579, 36.842, 35.9973
201.049790, 36.737, 35.8785
201.416001, 36.634, 35.7557
201.782212, 36.532, 35.6297
202.148423, 36.431, 35.5013
202.514634, 36.332, 35.3714
202.880845, 36.234, 35.2406
203.247055, 36.137, 35.1097
203.613266, 36.041, 34.9793
203.979477, 35.947, 34.8501
204.345688, 35.855, 34.7227
204.711899, 35.763, 34.5977
205.078110, 35.673, 34.4756
205.444321, 35.585, 34.3568
205.810532, 35.498, 34.2420
206.176743, 35.412, 34.1313
206.542954, 35.328, 34.0254
206.909164, 35.246, 33.9244
207.275375, 35.165, 33.8287
207.641586, 35.086, 33.7385
208.007797, 35.008, 33.6540
208.374008, 34.931, 33.5754
208.740219, 34.857, 33.5028
209.106430, 34.784, 33.4363
209.472641, 34.712, 33.3760
209.838852, 34.643, 33.3217
210.205063, 34.574, 33.2736
210.571274, 34.508, 33.2314
210.937484, 34.443, 33.1952
211.303695, 34.380, 33.1646
211.669906, 34.319, 33.1396
212.036117, 34.259, 33.1199
212.402328, 34.202, 33.1053
212.768539, 34.145, 33.0954
213.134750, 34.091, 33.0899
213.500961, 34.038, 33.0886
213.867172, 33.988, 33.0909
214.233383, 33.938, 33.0966
214.599594, 33.891, 33.1051
214.965804, 33.845, 33.1160
215.332015, 33.801, 33.1289
215.698226, 33.759, 33.1433
216.064437, 33.719, 33.1586
216.430648, 33.680, 33.1744
216.796859, 33.643, 33.1901
217.163070, 33.608, 33.2052
217.529281, 33.574, 33.2190
217.895492, 33.542, 33.2311
218.261703, 33.511, 33.2409
218.627914, 33.483, 33.2478
218.994124, 33.455, 33.2512
219.360335, 33.430, 33.2506
219.726546, 33.406, 33.2453
220.092757, 33.383, 33.2348
220.458968, 33.362, 33.2186
220.825179, 33.342, 33.1959
221.191390, 33.324, 33.1664
221.557601, 33.307, 33.1293
221.923812, 33.291, 33.0843
222.290023, 33.277, 33.0306
222.656234, 33.264, 32.9679
223.022444, 33.252, 32.8956
223.388655, 33.242, 32.8131
223.754866, 33.232, 32.7201
224.121077, 33.224, 32.6160
224.487288, 33.217, 32.5003
224.853499, 33.211, 32.3728
225.219710, 33.206, 32.2328
225.585921, 33.202, 32.0800
225.952132, 33.199, 31.9142
226.318343, 33.196, 31.7348
226.684554, 33.195, 31.5416
227.050764, 33.195, 31.3342
227.416975, 33.195, 31.1125
227.783186, 33.196, 30.8760
228.149397, 33.198, 30.6247
228.515608, 33.201, 30.3583
228.881819, 33.204, 30.0766
229.248030, 33.208, 29.7794
229.614241, 33.212, 29.4667
229.980452, 33.217, 29.1384
230.346663, 33.223, 28.7944
230.712873, 33.229, 28.4346
231.079084, 33.236, 28.0591
231.445295, 33.243, 27.6679
231.811506, 33.251, 27.2611
232.177717, 33.259, 26.8387
232.543928, 33.267, 26.4009
232.910139, 33.276, 25.9478
233.276350, 33.286, 25.4796
233.642561, 33.295, 24.9965
234.008772, 33.305, 24.4988
234.374983, 33.315, 23.9868
234.741193, 33.326, 23.4608
235.107404, 33.336, 22.9210
235.473615, 33.347, 22.3680
235.839826, 33.359, 21.8020
236.206037, 33.370, 21.2236
236.572248, 33.382, 20.6332
236.938459, 33.393, 20.0312
237.304670, 33.405, 19.4182
237.670881, 33.417, 18.7948
238.037092, 33.429, 18.1615
238.403303, 33.441, 17.5190
238.769513, 33.454, 16.8678
239.135724, 33.466, 16.2086
239.501935, 33.479, 15.5420
239.868146, 33.491, 14.8689
240.234357, 33.503, 14.1898
240.600568, 33.516, 13.5056
240.966779, 33.528, 12.8169
241.332990, 33.541, 12.1246
241.699201, 33.553, 11.4294
242.065412, 33.565, 10.7322
242.431623, 33.578, 10.0337
242.797833, 33.590, 9.3348
243.164044, 33.602, 8.6363
243.530255, 33.614, 7.9390
243.896466, 33.625, 7.2438
244.262677, 33.637, 6.5515
244.628888, 33.648, 5.8631
244.995099, 33.660, 5.1793
245.361310, 33.671, 4.5009
245.727521, 33.682, 3.8289
246.093732, 33.692, 3.1641
246.459943, 33.703, 2.5073
246.826153, 33.713, 1.8594
247.192364, 33.723, 1.2211
247.558575, 33.733, 0.5933
247.924786, 33.742, -0.0233
248.290997, 33.751, -0.6277
248.657208, 33.760, -1.2194
249.023419, 33.768, -1.7975
249.389630, 33.777, -2.3612
249.755841, 33.784, -2.9099
250.122052, 33.792, -3.4429
250.488263, 33.799, -3.9594
250.854473, 33.806, -4.4589
251.220684, 33.812, -4.9406
251.586895, 33.818, -5.4040
251.953106, 33.824, -5.8485
252.319317, 33.829, -6.2735
252.685528, 33.834, -6.6785
253.051739, 33.838, -7.0629
253.417950, 33.842, -7.4262
253.784161, 33.846, -7.7680
254.150372, 33.849, -8.0878
254.516582, 33.852, -8.3851
254.882793, 33.854, -8.6597
255.249004, 33.855, -8.9110
255.615215, 33.857, -9.1388
255.981426, 33.858, -9.3427
256.347637, 33.858, -9.5224
256.713848, 33.858, -9.6777
257.080059, 33.857, -9.8081
257.446270, 33.856, -9.9136
257.812481, 33.855, -9.9940
258.178692, 33.852, -10.0489
258.544902, 33.850, -10.0782
258.911113, 33.847, -10.0818
259.277324, 33.843, -10.0596
259.643535, 33.839, -10.0114
260.009746, 33.834, -9.9371
260.375957, 33.829, -9.8367
260.742168, 33.824, -9.7100
261.108379, 33.818, -9.5571
261.474590, 33.811, -9.3780
261.840801, 33.804, -9.1725
262.207012, 33.796, -8.9408
262.573222, 33.788, -8.6829
262.939433, 33.779, -8.3987
263.305644, 33.770, -8.0884
263.671855, 33.760, -7.7519
264.038066, 33.749, -7.3895
264.404277, 33.739, -7.0011
264.770488, 33.727, -6.5869
265.136699, 33.715, -6.1470
265.502910, 33.703, -5.6816
265.869121, 33.690, -5.1907
266.235332, 33.677, -4.6745
266.601542, 33.663, -4.1332
266.967753, 33.648, -3.5669
267.333964, 33.633, -2.9758
267.700175, 33.618, -2.3602
268.066386, 33.602, -1.7201
268.432597, 33.585, -1.0559
268.798808, 33.568, -0.3677
269.165019, 33.551, 0.3443
269.531230, 33.533, 1.0797
269.897441, 33.515, 1.8385
270.263652, 33.496, 2.6203
270.629862, 33.477, 3.4249
270.996073, 33.457, 4.2521
271.362284, 33.437, 5.1015
271.728495, 33.416, 5.9729
272.094706, 33.395, 6.8660
272.460917, 33.374, 7.7806
272.827128, 33.352, 8.7164
273.193339, 33.330, 9.6731
273.559550, 33.307, 10.6503
273.925761, 33.284, 11.6479
274.291972, 33.261, 12.6654
274.658182, 33.237, 13.7027
275.024393, 33.213, 14.7593
275.390604, 33.189, 15.8350
275.756815, 33.164, 16.9294
276.123026, 33.139, 18.0423
276.489237, 33.113, 19.1734
276.855448, 33.088, 20.3222
277.221659, 33.062, 21.4886
277.587870, 33.035, 22.6721
277.954081, 33.009, 23.8725
278.320291, 32.982, 25.0894
278.686502, 32.955, 26.3226
279.052713, 32.928, 27.5716
279.418924, 32.900, 28.8362
279.785135, 32.872, 30.1161
280.151346, 32.844, 31.4109
