Freq(Hz), SPL(dB), Phase(degrees)
20.141602, 73.284, 174.1754
20.507812, 73.232, 174.3004
20.874023, 73.993, 172.2775
21.240234, 74.949, 169.3536
21.606445, 76.004, 165.6507
21.972656, 77.095, 161.3032
22.338867, 78.192, 156.4520
22.705078, 79.278, 151.2347
23.071289, 80.347, 145.7742
23.437500, 81.396, 140.1683
23.803711, 82.424, 134.4857
24.169922, 83.431, 128.7684
24.536132, 84.416, 123.0395
24.902343, 85.379, 117.3098
25.268554, 86.318, 111.5818
25.634765, 87.232, 105.8477
26.000976, 88.119, 100.0870
26.367187, 88.976, 94.2645
26.733398, 89.797, 88.3333
27.099609, 90.579, 82.2399
27.465820, 91.318, 75.9306
27.832031, 92.008, 69.3562
28.198242, 92.644, 62.4752
28.564452, 93.221, 55.2568
28.930663, 93.735, 47.6864
29.296874, 94.179, 39.7717
29.663085, 94.548, 31.5504
30.029296, 94.841, 23.0938
30.395507, 95.053, 14.5046
30.761718, 95.186, 5.9091
31.127929, 95.240, -2.5574
31.494140, 95.221, -10.7645
31.860351, 95.134, -18.6025
32.226562, 94.987, -25.9913
32.592772, 94.787, -32.8838
32.958983, 94.542, -39.2607
33.325194, 94.260, -45.1194
33.691405, 93.945, -50.4601
34.057616, 93.600, -55.2733
34.423827, 93.229, -59.5337
34.790038, 92.831, -63.2008
35.156249, 92.410, -66.2245
35.522460, 91.965, -68.5541
35.888671, 91.499, -70.1476
36.254882, 91.017, -70.9792
36.621092, 90.523, -71.0448
36.987303, 90.023, -70.3644
37.353514, 89.528, -68.9832
37.719725, 89.046, -66.9708
38.085936, 88.592, -64.4192
38.452147, 88.177, -61.4387
38.818358, 87.817, -58.1541
39.184569, 87.523, -54.6978
39.550780, 87.308, -51.2039
39.916991, 87.175, -47.8018
40.283201, 87.126, -44.6104
40.649412, 87.154, -41.7335
41.015623, 87.250, -39.2570
41.381834, 87.398, -37.2464
41.748045, 87.585, -35.7468
42.114256, 87.795, -34.7826
42.480467, 88.015, -34.3591
42.846678, 88.233, -34.4634
43.212889, 88.439, -35.0663
43.579100, 88.626, -36.1240
43.945311, 88.785, -37.5802
44.311521, 88.914, -39.3683
44.677732, 89.007, -41.4143
45.043943, 89.064, -43.6389
45.410154, 89.082, -45.9609
45.776365, 89.060, -48.3008
46.142576, 89.001, -50.5826
46.508787, 88.904, -52.7374
46.874998, 88.772, -54.7053
47.241209, 88.607, -56.4362
47.607420, 88.412, -57.8915
47.973631, 88.190, -59.0433
48.339841, 87.944, -59.8749
48.706052, 87.677, -60.3785
49.072263, 87.394, -60.5551
49.438474, 87.097, -60.4121
49.804685, 86.790, -59.9622
50.170896, 86.479, -59.2218
50.537107, 86.166, -58.2094
50.903318, 85.856, -56.9449
51.269529, 85.553, -55.4493
51.635740, 85.262, -53.7438
52.001951, 84.987, -51.8507
52.368161, 84.733, -49.7936
52.734372, 84.506, -47.5973
53.100583, 84.307, -45.2891
53.466794, 84.142, -42.8981
53.833005, 84.012, -40.4556
54.199216, 83.920, -37.9941
54.565427, 83.864, -35.5471
54.931638, 83.845, -33.1478
55.297849, 83.860, -30.8281
55.664060, 83.906, -28.6180
56.030271, 83.979, -26.5439
56.396481, 84.073, -24.6285
56.762692, 84.186, -22.8899
57.128903, 84.311, -21.3416
57.495114, 84.445, -19.9919
57.861325, 84.584, -18.8450
58.227536, 84.723, -17.9001
58.593747, 84.861, -17.1528
58.959958, 84.993, -16.5950
59.326169, 85.119, -16.2157
59.692380, 85.235, -16.0018
60.058591, 85.342, -15.9381
60.424801, 85.437, -16.0083
60.791012, 85.520, -16.1953
61.157223, 85.591, -16.4815
61.523434, 85.649, -16.8496
61.889645, 85.695, -17.2826
62.255856, 85.728, -17.7644
62.622067, 85.749, -18.2800
62.988278, 85.759, -18.8161
63.354489, 85.759, -19.3606
63.720700, 85.748, -19.9033
64.086910, 85.729, -20.4359
64.453121, 85.702, -20.9516
64.819332, 85.667, -21.4453
65.185543, 85.627, -21.9135
65.551754, 85.581, -22.3536
65.917965, 85.530, -22.7644
66.284176, 85.475, -23.1452
66.650387, 85.416, -23.4958
67.016598, 85.354, -23.8167
67.382809, 85.288, -24.1080
67.749020, 85.220, -24.3703
68.115230, 85.149, -24.6038
68.481441, 85.076, -24.8083
68.847652, 84.999, -24.9837
69.213863, 84.920, -25.1292
69.580074, 84.838, -25.2437
69.946285, 84.752, -25.3256
70.312496, 84.663, -25.3730
70.678707, 84.570, -25.3840
71.044918, 84.473, -25.3561
71.411129, 84.373, -25.2867
71.777340, 84.268, -25.1733
72.143550, 84.160, -25.0134
72.509761, 84.047, -24.8047
72.875972, 83.930, -24.5450
73.242183, 83.810, -24.2325
73.608394, 83.685, -23.8660
73.974605, 83.558, -23.4442
74.340816, 83.427, -22.9669
74.707027, 83.293, -22.4340
75.073238, 83.157, -21.8461
75.439449, 83.019, -21.2039
75.805660, 82.879, -20.5090
76.171870, 82.739, -19.7633
76.538081, 82.597, -18.9689
76.904292, 82.455, -18.1285
77.270503, 82.314, -17.2448
77.636714, 82.173, -16.3207
78.002925, 82.034, -15.3596
78.369136, 81.896, -14.3646
78.735347, 81.761, -13.3391
79.101558, 81.628, -12.2863
79.467769, 81.498, -11.2094
79.833980, 81.371, -10.1115
80.200190, 81.247, -8.9957
80.566401, 81.128, -7.8650
80.932612, 81.013, -6.7220
81.298823, 80.902, -5.5696
81.665034, 80.795, -4.4100
82.031245, 80.694, -3.2459
82.397456, 80.597, -2.0795
82.763667, 80.505, -0.9128
83.129878, 80.418, 0.2518
83.496089, 80.336, 1.4124
83.862300, 80.259, 2.5669
84.228510, 80.187, 3.7133
84.594721, 80.121, 4.8496
84.960932, 80.059, 5.9741
85.327143, 80.002, 7.0850
85.693354, 79.950, 8.1803
86.059565, 79.902, 9.2587
86.425776, 79.859, 10.3184
86.791987, 79.819, 11.3581
87.158198, 79.784, 12.3766
87.524409, 79.752, 13.3727
87.890619, 79.724, 14.3453
88.256830, 79.698, 15.2939
88.623041, 79.675, 16.2176
88.989252, 79.655, 17.1158
89.355463, 79.636, 17.9883
89.721674, 79.620, 18.8348
90.087885, 79.604, 19.6552
90.454096, 79.591, 20.4492
90.820307, 79.577, 21.2174
91.186518, 79.565, 21.9597
91.552729, 79.553, 22.6765
91.918939, 79.541, 23.3684
92.285150, 79.528, 24.0359
92.651361, 79.515, 24.6797
93.017572, 79.502, 25.3007
93.383783, 79.487, 25.8998
93.749994, 79.471, 26.4779
94.116205, 79.454, 27.0364
94.482416, 79.435, 27.5765
94.848627, 79.414, 28.0995
95.214838, 79.391, 28.6070
95.581049, 79.366, 29.1004
95.947259, 79.338, 29.5813
96.313470, 79.308, 30.0515
96.679681, 79.275, 30.5127
97.045892, 79.240, 30.9666
97.412103, 79.201, 31.4151
97.778314, 79.159, 31.8600
98.144525, 79.114, 32.3031
98.510736, 79.066, 32.7464
98.876947, 79.015, 33.1916
99.243158, 78.960, 33.6406
99.609369, 78.902, 34.0951
99.975579, 78.841, 34.5571
100.341790, 78.776, 35.0281
100.708001, 78.707, 35.5098
101.074212, 78.635, 36.0038
101.440423, 78.560, 36.5114
101.806634, 78.481, 37.0343
102.172845, 78.399, 37.5734
102.539056, 78.313, 38.1300
102.905267, 78.224, 38.7050
103.271478, 78.132, 39.2991
103.637689, 78.036, 39.9132
104.003899, 77.938, 40.5476
104.370110, 77.837, 41.2027
104.736321, 77.733, 41.8786
105.102532, 77.626, 42.5754
105.468743, 77.517, 43.2928
105.834954, 77.405, 44.0307
106.201165, 77.291, 44.7885
106.567376, 77.175, 45.5657
106.933587, 77.058, 46.3617
107.299798, 76.938, 47.1759
107.666009, 76.817, 48.0074
108.032219, 76.694, 48.8555
108.398430, 76.569, 49.7193
108.764641, 76.444, 50.5981
109.130852, 76.317, 51.4910
109.497063, 76.190, 52.3974
109.863274, 76.061, 53.3164
110.229485, 75.932, 54.2475
110.595696, 75.801, 55.1900
110.961907, 75.671, 56.1435
111.328118, 75.539, 57.1076
111.694328, 75.407, 58.0818
112.060539, 75.274, 59.0660
112.426750, 75.141, 60.0600
112.792961, 75.008, 61.0638
113.159172, 74.874, 62.0774
113.525383, 74.739, 63.1009
113.891594, 74.605, 64.1345
114.257805, 74.469, 65.1784
114.624016, 74.333, 66.2331
114.990227, 74.197, 67.2989
115.356438, 74.061, 68.3762
115.722648, 73.923, 69.4655
116.088859, 73.785, 70.5674
116.455070, 73.647, 71.6823
116.821281, 73.508, 72.8107
117.187492, 73.369, 73.9532
117.553703, 73.228, 75.1101
117.919914, 73.087, 76.2821
118.286125, 72.946, 77.4694
118.652336, 72.804, 78.6723
119.018547, 72.661, 79.8912
119.384758, 72.517, 81.1263
119.750968, 72.373, 82.3776
120.117179, 72.228, 83.6452
120.483390, 72.082, 84.9289
120.849601, 71.936, 86.2287
121.215812, 71.789, 87.5441
121.582023, 71.642, 88.8749
121.948234, 71.494, 90.2206
122.314445, 71.346, 91.5806
122.680656, 71.197, 92.9541
123.046867, 71.048, 94.3405
123.413078, 70.899, 95.7389
123.779288, 70.749, 97.1484
124.145499, 70.600, 98.5681
124.511710, 70.450, 99.9968
124.877921, 70.300, 101.4337
125.244132, 70.151, 102.8774
125.610343, 70.002, 104.3270
125.976554, 69.853, 105.7813
126.342765, 69.704, 107.2393
126.708976, 69.556, 108.6998
127.075187, 69.408, 110.1617
127.441398, 69.261, 111.6241
127.807608, 69.115, 113.0859
128.173819, 68.969, 114.5462
128.540030, 68.824, 116.0043
128.906241, 68.680, 117.4592
129.272452, 68.537, 118.9103
129.638663, 68.394, 120.3569
130.004874, 68.253, 121.7986
130.371085, 68.112, 123.2348
130.737296, 67.973, 124.6653
131.103507, 67.834, 126.0898
131.469718, 67.697, 127.5081
131.835928, 67.560, 128.9201
132.202139, 67.425, 130.3260
132.568350, 67.290, 131.7258
132.934561, 67.156, 133.1198
133.300772, 67.024, 134.5084
133.666983, 66.891, 135.8918
134.033194, 66.760, 137.2706
134.399405, 66.629, 138.6453
134.765616, 66.499, 140.0166
135.131827, 66.370, 141.3851
135.498037, 66.241, 142.7516
135.864248, 66.112, 144.1168
136.230459, 65.984, 145.4816
136.596670, 65.856, 146.8468
136.962881, 65.728, 148.2132
137.329092, 65.600, 149.5818
137.695303, 65.473, 150.9534
138.061514, 65.345, 152.3289
138.427725, 65.217, 153.7092
138.793936, 65.089, 155.0950
139.160147, 64.961, 156.4874
139.526357, 64.833, 157.8870
139.892568, 64.704, 159.2946
140.258779, 64.575, 160.7110
140.624990, 64.445, 162.1370
140.991201, 64.315, 163.5730
141.357412, 64.184, 165.0199
141.723623, 64.053, 166.4781
142.089834, 63.921, 167.9482
142.456045, 63.789, 169.4308
142.822256, 63.656, 170.9263
143.188467, 63.522, 172.4351
143.554677, 63.388, 173.9576
143.920888, 63.253, 175.4941
144.287099, 63.117, 177.0451
144.653310, 62.981, 178.6108
145.019521, 62.844, -179.8085
145.385732, 62.706, -178.2126
145.751943, 62.567, -176.6012
146.118154, 62.428, -174.9742
146.484365, 62.288, -173.3314
146.850576, 62.147, -171.6726
147.216787, 62.005, -169.9976
147.582997, 61.863, -168.3065
147.949208, 61.720, -166.5990
148.315419, 61.576, -164.8752
148.681630, 61.431, -163.1349
149.047841, 61.286, -161.3783
149.414052, 61.140, -159.6052
149.780263, 60.993, -157.8158
150.146474, 60.846, -156.0101
150.512685, 60.697, -154.1882
150.878896, 60.548, -152.3502
151.245107, 60.399, -150.4962
151.611317, 60.248, -148.6266
151.977528, 60.098, -146.7414
152.343739, 59.946, -144.8408
152.709950, 59.794, -142.9252
153.076161, 59.641, -140.9949
153.442372, 59.487, -139.0500
153.808583, 59.333, -137.0910
154.174794, 59.179, -135.1182
154.541005, 59.024, -133.1319
154.907216, 58.868, -131.1325
155.273427, 58.712, -129.1205
155.639637, 58.555, -127.0961
156.005848, 58.398, -125.0598
156.372059, 58.240, -123.0120
156.738270, 58.082, -120.9532
157.104481, 57.924, -118.8838
157.470692, 57.765, -116.8041
157.836903, 57.606, -114.7146
158.203114, 57.447, -112.6158
158.569325, 57.287, -110.5080
158.935536, 57.127, -108.3917
159.301746, 56.967, -106.2672
159.667957, 56.806, -104.1350
160.034168, 56.646, -101.9954
160.400379, 56.485, -99.8489
160.766590, 56.324, -97.6958
161.132801, 56.162, -95.5364
161.499012, 56.001, -93.3710
161.865223, 55.840, -91.2002
162.231434, 55.678, -89.0241
162.597645, 55.516, -86.8430
162.963856, 55.355, -84.6573
163.330066, 55.193, -82.4674
163.696277, 55.032, -80.2733
164.062488, 54.870, -78.0755
164.428699, 54.708, -75.8742
164.794910, 54.547, -73.6696
165.161121, 54.385, -71.4621
165.527332, 54.224, -69.2518
165.893543, 54.063, -67.0389
166.259754, 53.902, -64.8238
166.625965, 53.741, -62.6066
166.992176, 53.580, -60.3875
167.358386, 53.420, -58.1668
167.724597, 53.260, -55.9447
168.090808, 53.100, -53.7213
168.457019, 52.940, -51.4968
168.823230, 52.781, -49.2715
169.189441, 52.622, -47.0455
169.555652, 52.463, -44.8191
169.921863, 52.304, -42.5923
170.288074, 52.146, -40.3654
170.654285, 51.989, -38.1386
171.020496, 51.832, -35.9119
171.386706, 51.675, -33.6857
171.752917, 51.518, -31.4600
172.119128, 51.363, -29.2350
172.485339, 51.207, -27.0109
172.851550, 51.052, -24.7878
173.217761, 50.898, -22.5659
173.583972, 50.744, -20.3454
173.950183, 50.591, -18.1263
174.316394, 50.438, -15.9089
174.682605, 50.286, -13.6932
175.048816, 50.135, -11.4794
175.415026, 49.984, -9.2676
175.781237, 49.834, -7.0580
176.147448, 49.684, -4.8505
176.513659, 49.535, -2.6455
176.879870, 49.387, -0.4429
177.246081, 49.240, 1.7572
177.612292, 49.093, 3.9547
177.978503, 48.947, 6.1495
178.344714, 48.802, 8.3415
178.710925, 48.658, 10.5308
179.077136, 48.514, 12.7173
179.443346, 48.371, 14.9009
179.809557, 48.229, 17.0816
180.175768, 48.088, 19.2595
180.541979, 47.947, 21.4345
180.908190, 47.807, 23.6067
181.274401, 47.669, 25.7760
181.640612, 47.531, 27.9425
182.006823, 47.393, 30.1063
182.373034, 47.257, 32.2674
182.739245, 47.121, 34.4258
183.105455, 46.987, 36.5817
183.471666, 46.853, 38.7351
183.837877, 46.720, 40.8861
184.204088, 46.587, 43.0348
184.570299, 46.456, 45.1813
184.936510, 46.326, 47.3257
185.302721, 46.196, 49.4681
185.668932, 46.067, 51.6087
186.035143, 45.939, 53.7476
186.401354, 45.811, 55.8848
186.767565, 45.685, 58.0207
187.133775, 45.559, 60.1552
187.499986, 45.434, 62.2885
187.866197, 45.310, 64.4208
188.232408, 45.186, 66.5523
188.598619, 45.064, 68.6830
188.964830, 44.942, 70.8131
189.331041, 44.820, 72.9429
189.697252, 44.700, 75.0723
190.063463, 44.580, 77.2017
190.429674, 44.461, 79.3311
190.795885, 44.342, 81.4607
191.162095, 44.224, 83.5907
191.528306, 44.107, 85.7212
191.894517, 43.991, 87.8523
192.260728, 43.875, 89.9842
192.626939, 43.759, 92.1170
192.993150, 43.645, 94.2509
193.359361, 43.530, 96.3860
193.725572, 43.417, 98.5225
194.091783, 43.304, 100.6604
194.457994, 43.191, 102.7999
194.824205, 43.079, 104.9410
195.190415, 42.968, 107.0840
195.556626, 42.857, 109.2289
195.922837, 42.746, 111.3757
196.289048, 42.636, 113.5246
196.655259, 42.527, 115.6756
197.021470, 42.418, 117.8289
197.387681, 42.309, 119.9844
197.753892, 42.201, 122.1422
198.120103, 42.093, 124.3023
198.486314, 41.986, 126.4649
198.852525, 41.879, 128.6298
199.218735, 41.773, 130.7972
199.584946, 41.667, 132.9669
199.951157, 41.562, 135.1390
200.317368, 41.457, 137.3135
200.683579, 41.352, 139.4903
201.049790, 41.248, 141.6694
201.416001, 41.144, 143.8507
201.782212, 41.041, 146.0342
202.148423, 40.938, 148.2197
202.514634, 40.835, 150.4072
202.880845, 40.733, 152.5966
203.247055, 40.632, 154.7877
203.613266, 40.531, 156.9804
203.979477, 40.430, 159.1747
204.345688, 40.330, 161.3703
204.711899, 40.231, 163.5670
205.078110, 40.132, 165.7648
205.444321, 40.033, 167.9634
205.810532, 39.935, 170.1627
206.176743, 39.838, 172.3624
206.542954, 39.741, 174.5624
206.909164, 39.645, 176.7623
207.275375, 39.549, 178.9621
207.641586, 39.455, -178.8386
208.007797, 39.360, -176.6400
208.374008, 39.267, -174.4423
208.740219, 39.174, -172.2458
209.106430, 39.082, -170.0508
209.472641, 38.990, -167.8576
209.838852, 38.900, -165.6664
210.205063, 38.810, -163.4774
210.571274, 38.721, -161.2911
210.937484, 38.633, -159.1077
211.303695, 38.546, -156.9276
211.669906, 38.460, -154.7509
212.036117, 38.374, -152.5781
212.402328, 38.290, -150.4094
212.768539, 38.207, -148.2452
213.134750, 38.124, -146.0859
213.500961, 38.043, -143.9317
213.867172, 37.963, -141.7830
214.233383, 37.884, -139.6400
214.599594, 37.806, -137.5033
214.965804, 37.729, -135.3731
215.332015, 37.654, -133.2497
215.698226, 37.579, -131.1336
216.064437, 37.506, -129.0250
216.430648, 37.435, -126.9243
216.796859, 37.364, -124.8319
217.163070, 37.295, -122.7482
217.529281, 37.227, -120.6735
217.895492, 37.161, -118.6081
218.261703, 37.095, -116.5524
218.627914, 37.032, -114.5068
218.994124, 36.970, -112.4717
219.360335, 36.909, -110.4475
219.726546, 36.849, -108.4344
220.092757, 36.791, -106.4330
220.458968, 36.735, -104.4434
220.825179, 36.680, -102.4662
221.191390, 36.627, -100.5017
221.557601, 36.575, -98.5503
221.923812, 36.524, -96.6123
222.290023, 36.476, -94.6881
222.656234, 36.428, -92.7782
223.022444, 36.382, -90.8828
223.388655, 36.338, -89.0024
223.754866, 36.295, -87.1374
224.121077, 36.254, -85.2881
224.487288, 36.214, -83.4548
224.853499, 36.176, -81.6381
225.219710, 36.139, -79.8382
225.585921, 36.103, -78.0556
225.952132, 36.069, -76.2906
226.318343, 36.036, -74.5436
226.684554, 36.005, -72.8151
227.050764, 35.975, -71.1052
227.416975, 35.947, -69.4145
227.783186, 35.919, -67.7433
228.149397, 35.893, -66.0921
228.515608, 35.869, -64.4610
228.881819, 35.845, -62.8506
229.248030, 35.823, -61.2612
229.614241, 35.801, -59.6931
229.980452, 35.781, -58.1468
230.346663, 35.762, -56.6225
230.712873, 35.744, -55.1207
231.079084, 35.727, -53.6416
231.445295, 35.711, -52.1856
231.811506, 35.695, -50.7531
232.177717, 35.681, -49.3444
232.543928, 35.667, -47.9598
232.910139, 35.654, -46.5996
233.276350, 35.642, -45.2641
233.642561, 35.630, -43.9537
234.008772, 35.619, -42.6686
234.374983, 35.609, -41.4092
234.741193, 35.599, -40.1757
235.107404, 35.589, -38.9683
235.473615, 35.580, -37.7874
235.839826, 35.571, -36.6331
236.206037, 35.562, -35.5058
236.572248, 35.554, -34.4056
236.938459, 35.546, -33.3328
237.304670, 35.538, -32.2875
237.670881, 35.530, -31.2701
238.037092, 35.522, -30.2805
238.403303, 35.514, -29.3191
238.769513, 35.506, -28.3859
239.135724, 35.497, -27.4812
239.501935, 35.489, -26.6050
239.868146, 35.481, -25.7574
240.234357, 35.472, -24.9387
240.600568, 35.463, -24.1487
240.966779, 35.453, -23.3878
241.332990, 35.444, -22.6558
241.699201, 35.434, -21.9529
242.065412, 35.423, -21.2790
242.431623, 35.412, -20.6343
242.797833, 35.400, -20.0187
243.164044, 35.388, -19.4323
243.530255, 35.376, -18.8749
243.896466, 35.362, -18.3467
244.262677, 35.348, -17.8476
244.628888, 35.334, -17.3775
244.995099, 35.318, -16.9364
245.361310, 35.302, -16.5242
245.727521, 35.285, -16.1409
246.093732, 35.268, -15.7863
246.459943, 35.250, -15.4603
246.826153, 35.230, -15.1629
247.192364, 35.210, -14.8939
247.558575, 35.190, -14.6533
247.924786, 35.168, -14.4409
248.290997, 35.146, -14.2565
248.657208, 35.122, -14.1000
249.023419, 35.098, -13.9712
249.389630, 35.073, -13.8700
249.755841, 35.047, -13.7963
250.122052, 35.020, -13.7497
250.488263, 34.992, -13.7302
250.854473, 34.963, -13.7375
251.220684, 34.933, -13.7715
251.586895, 34.903, -13.8320
251.953106, 34.871, -13.9187
252.319317, 34.839, -14.0314
252.685528, 34.805, -14.1699
253.051739, 34.771, -14.3340
253.417950, 34.736, -14.5233
253.784161, 34.700, -14.7378
254.150372, 34.662, -14.9772
254.516582, 34.625, -15.2410
254.882793, 34.586, -15.5293
255.249004, 34.546, -15.8416
255.615215, 34.505, -16.1776
255.981426, 34.464, -16.5372
256.347637, 34.421, -16.9199
256.713848, 34.378, -17.3257
257.080059, 34.334, -17.7541
257.446270, 34.289, -18.2048
257.812481, 34.244, -18.6776
258.178692, 34.197, -19.1721
258.544902, 34.150, -19.6880
258.911113, 34.101, -20.2250
259.277324, 34.052, -20.7827
259.643535, 34.003, -21.3609
260.009746, 33.952, -21.9592
260.375957, 33.901, -22.5773
260.742168, 33.849, -23.2147
261.108379, 33.796, -23.8712
261.474590, 33.742, -24.5464
261.840801, 33.688, -25.2400
262.207012, 33.633, -25.9515
262.573222, 33.578, -26.6807
262.939433, 33.521, -27.4271
263.305644, 33.464, -28.1904
263.671855, 33.407, -28.9702
264.038066, 33.349, -29.7662
264.404277, 33.290, -30.5779
264.770488, 33.230, -31.4050
265.136699, 33.170, -32.2471
265.502910, 33.109, -33.1038
265.869121, 33.048, -33.9747
266.235332, 32.986, -34.8596
266.601542, 32.924, -35.7579
266.967753, 32.861, -36.6693
267.333964, 32.797, -37.5935
267.700175, 32.733, -38.5300
268.066386, 32.669, -39.4786
268.432597, 32.603, -40.4388
268.798808, 32.538, -41.4102
269.165019, 32.472, -42.3925
269.531230, 32.405, -43.3854
269.897441, 32.338, -44.3885
270.263652, 32.271, -45.4016
270.629862, 32.203, -46.4240
270.996073, 32.135, -47.4557
271.362284, 32.067, -48.4962
271.728495, 31.997, -49.5453
272.094706, 31.928, -50.6026
272.460917, 31.858, -51.6678
272.827128, 31.788, -52.7406
273.193339, 31.718, -53.8207
273.559550, 31.647, -54.9078
273.925761, 31.576, -56.0017
274.291972, 31.504, -57.1020
274.658182, 31.433, -58.2085
275.024393, 31.361, -59.3209
275.390604, 31.288, -60.4390
275.756815, 31.216, -61.5625
276.123026, 31.143, -62.6912
