Freq(Hz), SPL(dB), Phase(degrees)
20.141602, 71.488, -113.6234
20.507812, 71.451, -113.5721
20.874023, 72.011, -114.4018
21.240234, 72.743, -115.5743
21.606445, 73.578, -117.0116
21.972656, 74.469, -118.6414
22.338867, 75.387, -120.4022
22.705078, 76.317, -122.2429
23.071289, 77.251, -124.1198
23.437500, 78.187, -125.9949
23.803711, 79.125, -127.8393
24.169922, 80.065, -129.6370
24.536132, 81.005, -131.3879
24.902343, 81.944, -133.1064
25.268554, 82.877, -134.8182
25.634765, 83.801, -136.5569
26.000976, 84.711, -138.3652
26.367187, 85.601, -140.2968
26.733398, 86.467, -142.4193
27.099609, 87.300, -144.8131
27.465820, 88.096, -147.5667
27.832031, 88.847, -150.7704
28.198242, 89.548, -154.5105
28.564452, 90.192, -158.8650
28.930663, 90.773, -163.8978
29.296874, 91.286, -169.6520
29.663085, 91.723, -176.1398
30.029296, 92.080, 176.6660
30.395507, 92.352, 168.8376
30.761718, 92.537, 160.4905
31.127929, 92.633, 151.7753
31.494140, 92.641, 142.8655
31.860351, 92.562, 133.9420
32.226562, 92.401, 125.1786
32.592772, 92.162, 116.7297
32.958983, 91.851, 108.7216
33.325194, 91.475, 101.2472
33.691405, 91.039, 94.3646
34.057616, 90.551, 88.0973
34.423827, 90.016, 82.4353
34.790038, 89.439, 77.3356
35.156249, 88.826, 72.7221
35.522460, 88.180, 68.4864
35.888671, 87.505, 64.4913
36.254882, 86.805, 60.5790
36.621092, 86.084, 56.5831
36.987303, 85.345, 52.3437
37.353514, 84.589, 47.7224
37.719725, 83.821, 42.6151
38.085936, 83.044, 36.9617
38.452147, 82.259, 30.7518
38.818358, 81.472, 24.0266
39.184569, 80.686, 16.8740
39.550780, 79.907, 9.4185
39.916991, 79.140, 1.8062
40.283201, 78.393, -5.8127
40.649412, 77.677, -13.3007
41.015623, 77.001, -20.5453
41.381834, 76.380, -27.4679
41.748045, 75.826, -34.0246
42.114256, 75.352, -40.2037
42.480467, 74.970, -46.0199
42.846678, 74.687, -51.5063
43.212889, 74.504, -56.7069
43.579100, 74.417, -61.6703
43.945311, 74.418, -66.4437
44.311521, 74.495, -71.0698
44.677732, 74.634, -75.5837
45.043943, 74.821, -80.0125
45.410154, 75.046, -84.3753
45.776365, 75.296, -88.6846
46.142576, 75.565, -92.9474
46.508787, 75.846, -97.1669
46.874998, 76.132, -101.3446
47.241209, 76.421, -105.4804
47.607420, 76.709, -109.5742
47.973631, 76.992, -113.6254
48.339841, 77.268, -117.6326
48.706052, 77.535, -121.5938
49.072263, 77.791, -125.5049
49.438474, 78.035, -129.3596
49.804685, 78.264, -133.1489
50.170896, 78.478, -136.8609
50.537107, 78.677, -140.4805
50.903318, 78.859, -143.9901
51.269529, 79.025, -147.3706
51.635740, 79.177, -150.6020
52.001951, 79.315, -153.6644
52.368161, 79.441, -156.5397
52.734372, 79.556, -159.2119
53.100583, 79.663, -161.6683
53.466794, 79.763, -163.9003
53.833005, 79.860, -165.9030
54.199216, 79.954, -167.6755
54.565427, 80.048, -169.2206
54.931638, 80.142, -170.5446
55.297849, 80.239, -171.6559
55.664060, 80.338, -172.5654
56.030271, 80.440, -173.2850
56.396481, 80.545, -173.8275
56.762692, 80.654, -174.2061
57.128903, 80.765, -174.4334
57.495114, 80.878, -174.5215
57.861325, 80.993, -174.4818
58.227536, 81.109, -174.3243
58.593747, 81.225, -174.0583
58.959958, 81.341, -173.6917
59.326169, 81.456, -173.2317
59.692380, 81.570, -172.6845
60.058591, 81.682, -172.0559
60.424801, 81.791, -171.3513
60.791012, 81.899, -170.5760
61.157223, 82.005, -169.7355
61.523434, 82.108, -168.8362
61.889645, 82.209, -167.8851
62.255856, 82.309, -166.8906
62.622067, 82.406, -165.8625
62.988278, 82.502, -164.8124
63.354489, 82.596, -163.7532
63.720700, 82.688, -162.6998
64.086910, 82.778, -161.6679
64.453121, 82.866, -160.6746
64.819332, 82.950, -159.7372
65.185543, 83.031, -158.8726
65.551754, 83.108, -158.0974
65.917965, 83.179, -157.4263
66.284176, 83.244, -156.8729
66.650387, 83.301, -156.4483
67.016598, 83.350, -156.1612
67.382809, 83.389, -156.0182
67.749020, 83.419, -156.0233
68.115230, 83.437, -156.1785
68.481441, 83.443, -156.4835
68.847652, 83.438, -156.9367
69.213863, 83.419, -157.5347
69.580074, 83.387, -158.2728
69.946285, 83.342, -159.1459
70.312496, 83.283, -160.1478
70.678707, 83.211, -161.2720
71.044918, 83.126, -162.5118
71.411129, 83.028, -163.8605
71.777340, 82.917, -165.3112
72.143550, 82.793, -166.8575
72.509761, 82.657, -168.4929
72.875972, 82.510, -170.2112
73.242183, 82.352, -172.0063
73.608394, 82.184, -173.8723
73.974605, 82.006, -175.8032
74.340816, 81.820, -177.7930
74.707027, 81.625, -179.8358
75.073238, 81.424, 178.0750
75.439449, 81.216, 175.9460
75.805660, 81.003, 173.7845
76.171870, 80.786, 171.5981
76.538081, 80.565, 169.3950
76.904292, 80.343, 167.1843
77.270503, 80.120, 164.9753
77.636714, 79.897, 162.7780
78.002925, 79.676, 160.6028
78.369136, 79.458, 158.4604
78.735347, 79.244, 156.3618
79.101558, 79.036, 154.3177
79.467769, 78.836, 152.3386
79.833980, 78.643, 150.4346
80.200190, 78.460, 148.6148
80.566401, 78.288, 146.8878
80.932612, 78.128, 145.2607
81.298823, 77.980, 143.7396
81.665034, 77.845, 142.3294
82.031245, 77.724, 141.0335
82.397456, 77.617, 139.8542
82.763667, 77.524, 138.7924
83.129878, 77.444, 137.8483
83.496089, 77.376, 137.0209
83.862300, 77.321, 136.3085
84.228510, 77.278, 135.7090
84.594721, 77.244, 135.2199
84.960932, 77.220, 134.8385
85.327143, 77.204, 134.5620
85.693354, 77.194, 134.3878
86.059565, 77.190, 134.3134
86.425776, 77.189, 134.3367
86.791987, 77.192, 134.4558
87.158198, 77.197, 134.6692
87.524409, 77.202, 134.9755
87.890619, 77.207, 135.3740
88.256830, 77.212, 135.8640
88.623041, 77.214, 136.4451
88.989252, 77.214, 137.1171
89.355463, 77.211, 137.8802
89.721674, 77.205, 138.7346
90.087885, 77.195, 139.6807
90.454096, 77.180, 140.7190
90.820307, 77.160, 141.8500
91.186518, 77.136, 143.0745
91.552729, 77.106, 144.3933
91.918939, 77.071, 145.8070
92.285150, 77.031, 147.3165
92.651361, 76.985, 148.9227
93.017572, 76.933, 150.6262
93.383783, 76.875, 152.4279
93.749994, 76.811, 154.3282
94.116205, 76.742, 156.3279
94.482416, 76.667, 158.4272
94.848627, 76.586, 160.6264
95.214838, 76.499, 162.9254
95.581049, 76.407, 165.3239
95.947259, 76.309, 167.8214
96.313470, 76.207, 170.4171
96.679681, 76.099, 173.1097
97.045892, 75.986, 175.8978
97.412103, 75.869, 178.7795
97.778314, 75.747, -178.2474
98.144525, 75.622, -175.1855
98.510736, 75.493, -172.0378
98.876947, 75.360, -168.8076
99.243158, 75.224, -165.4984
99.609369, 75.085, -162.1140
99.975579, 74.943, -158.6589
100.341790, 74.800, -155.1374
100.708001, 74.654, -151.5541
101.074212, 74.507, -147.9137
101.440423, 74.359, -144.2213
101.806634, 74.210, -140.4818
102.172845, 74.060, -136.7002
102.539056, 73.910, -132.8813
102.905267, 73.759, -129.0302
103.271478, 73.609, -125.1514
103.637689, 73.459, -121.2493
104.003899, 73.310, -117.3284
104.370110, 73.162, -113.3926
104.736321, 73.015, -109.4456
105.102532, 72.869, -105.4907
105.468743, 72.724, -101.5308
105.834954, 72.580, -97.5686
106.201165, 72.438, -93.6061
106.567376, 72.296, -89.6453
106.933587, 72.157, -85.6873
107.299798, 72.018, -81.7332
107.666009, 71.881, -77.7836
108.032219, 71.745, -73.8386
108.398430, 71.609, -69.8982
108.764641, 71.475, -65.9619
109.130852, 71.341, -62.0289
109.497063, 71.208, -58.0984
109.863274, 71.075, -54.1691
110.229485, 70.942, -50.2397
110.595696, 70.809, -46.3086
110.961907, 70.677, -42.3741
111.328118, 70.544, -38.4347
111.694328, 70.410, -34.4883
112.060539, 70.276, -30.5334
112.426750, 70.141, -26.5680
112.792961, 70.006, -22.5903
113.159172, 69.869, -18.5988
113.525383, 69.732, -14.5916
113.891594, 69.593, -10.5671
114.257805, 69.453, -6.5241
114.624016, 69.312, -2.4611
114.990227, 69.169, 1.6232
115.356438, 69.025, 5.7297
115.722648, 68.880, 9.8595
116.088859, 68.733, 14.0133
116.455070, 68.585, 18.1918
116.821281, 68.435, 22.3953
117.187492, 68.284, 26.6244
117.553703, 68.131, 30.8790
117.919914, 67.977, 35.1593
118.286125, 67.821, 39.4650
118.652336, 67.664, 43.7960
119.018547, 67.506, 48.1517
119.384758, 67.346, 52.5316
119.750968, 67.186, 56.9352
120.117179, 67.023, 61.3617
120.483390, 66.860, 65.8101
120.849601, 66.696, 70.2797
121.215812, 66.531, 74.7694
121.582023, 66.365, 79.2784
121.948234, 66.198, 83.8054
122.314445, 66.030, 88.3495
122.680656, 65.861, 92.9097
123.046867, 65.692, 97.4849
123.413078, 65.522, 102.0741
123.779288, 65.352, 106.6762
124.145499, 65.181, 111.2903
124.511710, 65.010, 115.9153
124.877921, 64.838, 120.5505
125.244132, 64.666, 125.1949
125.610343, 64.494, 129.8476
125.976554, 64.322, 134.5078
126.342765, 64.150, 139.1746
126.708976, 63.978, 143.8474
127.075187, 63.806, 148.5254
127.441398, 63.634, 153.2078
127.807608, 63.462, 157.8941
128.173819, 63.290, 162.5834
128.540030, 63.119, 167.2753
128.906241, 62.948, 171.9693
129.272452, 62.778, 176.6646
129.638663, 62.607, -178.6391
130.004874, 62.438, -173.9424
130.371085, 62.269, -169.2456
130.737296, 62.101, -164.5492
131.103507, 61.933, -159.8533
131.469718, 61.766, -155.1583
131.835928, 61.599, -150.4643
132.202139, 61.434, -145.7716
132.568350, 61.269, -141.0800
132.934561, 61.105, -136.3898
133.300772, 60.941, -131.7007
133.666983, 60.779, -127.0127
134.033194, 60.617, -122.3255
134.399405, 60.456, -117.6390
134.765616, 60.296, -112.9527
135.131827, 60.136, -108.2663
135.498037, 59.978, -103.5794
135.864248, 59.820, -98.8916
136.230459, 59.662, -94.2022
136.596670, 59.506, -89.5107
136.962881, 59.350, -84.8166
137.329092, 59.195, -80.1192
137.695303, 59.040, -75.4180
138.061514, 58.886, -70.7121
138.427725, 58.732, -66.0011
138.793936, 58.578, -61.2843
139.160147, 58.426, -56.5610
139.526357, 58.273, -51.8306
139.892568, 58.121, -47.0925
140.258779, 57.969, -42.3461
140.624990, 57.817, -37.5910
140.991201, 57.666, -32.8264
141.357412, 57.515, -28.0521
141.723623, 57.364, -23.2676
142.089834, 57.213, -18.4724
142.456045, 57.062, -13.6664
142.822256, 56.912, -8.8491
143.188467, 56.761, -4.0204
143.554677, 56.611, 0.8198
143.920888, 56.460, 5.6716
144.287099, 56.310, 10.5351
144.653310, 56.160, 15.4101
145.019521, 56.009, 20.2966
145.385732, 55.859, 25.1945
145.751943, 55.708, 30.1033
146.118154, 55.558, 35.0229
146.484365, 55.408, 39.9527
146.850576, 55.257, 44.8925
147.216787, 55.107, 49.8416
147.582997, 54.957, 54.7995
147.949208, 54.806, 59.7656
148.315419, 54.656, 64.7392
148.681630, 54.506, 69.7195
149.047841, 54.357, 74.7058
149.414052, 54.207, 79.6974
149.780263, 54.058, 84.6933
150.146474, 53.908, 89.6926
150.512685, 53.759, 94.6946
150.878896, 53.611, 99.6982
151.245107, 53.462, 104.7025
151.611317, 53.314, 109.7066
151.977528, 53.167, 114.7097
152.343739, 53.020, 119.7106
152.709950, 52.873, 124.7085
153.076161, 52.727, 129.7026
153.442372, 52.581, 134.6918
153.808583, 52.436, 139.6754
154.174794, 52.292, 144.6526
154.541005, 52.148, 149.6225
154.907216, 52.004, 154.5844
155.273427, 51.862, 159.5376
155.639637, 51.720, 164.4816
156.005848, 51.579, 169.4156
156.372059, 51.439, 174.3392
156.738270, 51.299, 179.2518
157.104481, 51.160, -175.8469
157.470692, 51.022, -170.9572
157.836903, 50.884, -166.0796
158.203114, 50.748, -161.2141
158.569325, 50.612, -156.3611
158.935536, 50.477, -151.5208
159.301746, 50.343, -146.6930
159.667957, 50.209, -141.8780
160.034168, 50.076, -137.0756
160.400379, 49.944, -132.2859
160.766590, 49.813, -127.5088
161.132801, 49.682, -122.7441
161.499012, 49.552, -117.9918
161.865223, 49.423, -113.2516
162.231434, 49.294, -108.5233
162.597645, 49.166, -103.8068
162.963856, 49.039, -99.1018
163.330066, 48.912, -94.4080
163.696277, 48.786, -89.7252
164.062488, 48.660, -85.0532
164.428699, 48.535, -80.3917
164.794910, 48.410, -75.7404
165.161121, 48.285, -71.0992
165.527332, 48.161, -66.4676
165.893543, 48.038, -61.8456
166.259754, 47.915, -57.2329
166.625965, 47.792, -52.6292
166.992176, 47.669, -48.0345
167.358386, 47.547, -43.4485
167.724597, 47.425, -38.8712
168.090808, 47.303, -34.3023
168.457019, 47.181, -29.7418
168.823230, 47.060, -25.1896
169.189441, 46.939, -20.6458
169.555652, 46.818, -16.1101
169.921863, 46.697, -11.5827
170.288074, 46.576, -7.0637
170.654285, 46.456, -2.5529
171.020496, 46.335, 1.9493
171.386706, 46.215, 6.4431
171.752917, 46.095, 10.9281
172.119128, 45.975, 15.4044
172.485339, 45.855, 19.8715
172.851550, 45.735, 24.3296
173.217761, 45.615, 28.7782
173.583972, 45.496, 33.2172
173.950183, 45.376, 37.6464
174.316394, 45.257, 42.0654
174.682605, 45.137, 46.4742
175.048816, 45.018, 50.8724
175.415026, 44.899, 55.2599
175.781237, 44.780, 59.6364
176.147448, 44.661, 64.0016
176.513659, 44.542, 68.3553
176.879870, 44.423, 72.6973
177.246081, 44.305, 77.0275
177.612292, 44.186, 81.3456
177.978503, 44.068, 85.6514
178.344714, 43.950, 89.9448
178.710925, 43.831, 94.2257
179.077136, 43.713, 98.4939
179.443346, 43.595, 102.7493
179.809557, 43.478, 106.9919
180.175768, 43.360, 111.2215
180.541979, 43.242, 115.4381
180.908190, 43.125, 119.6417
181.274401, 43.007, 123.8323
181.640612, 42.890, 128.0098
182.006823, 42.773, 132.1743
182.373034, 42.656, 136.3258
182.739245, 42.539, 140.4645
183.105455, 42.422, 144.5902
183.471666, 42.306, 148.7032
183.837877, 42.189, 152.8035
184.204088, 42.073, 156.8912
184.570299, 41.957, 160.9666
184.936510, 41.840, 165.0295
185.302721, 41.724, 169.0804
185.668932, 41.609, 173.1192
186.035143, 41.493, 177.1462
186.401354, 41.377, -178.8385
186.767565, 41.262, -174.8347
187.133775, 41.146, -170.8421
187.499986, 41.031, -166.8606
187.866197, 40.916, -162.8900
188.232408, 40.801, -158.9301
188.598619, 40.686, -154.9807
188.964830, 40.572, -151.0414
189.331041, 40.457, -147.1121
189.697252, 40.343, -143.1926
190.063463, 40.229, -139.2827
190.429674, 40.116, -135.3820
190.795885, 40.002, -131.4903
191.162095, 39.889, -127.6074
191.528306, 39.776, -123.7329
191.894517, 39.663, -119.8668
192.260728, 39.550, -116.0085
192.626939, 39.438, -112.1581
192.993150, 39.326, -108.3150
193.359361, 39.215, -104.4791
193.725572, 39.104, -100.6501
194.091783, 38.993, -96.8276
194.457994, 38.883, -93.0115
194.824205, 38.773, -89.2014
195.190415, 38.663, -85.3971
195.556626, 38.554, -81.5982
195.922837, 38.446, -77.8044
196.289048, 38.337, -74.0156
196.655259, 38.230, -70.2314
197.021470, 38.123, -66.4515
197.387681, 38.017, -62.6756
197.753892, 37.911, -58.9034
198.120103, 37.806, -55.1348
198.486314, 37.701, -51.3693
198.852525, 37.598, -47.6068
199.218735, 37.495, -43.8469
199.584946, 37.392, -40.0894
199.951157, 37.291, -36.3340
200.317368, 37.190, -32.5805
200.683579, 37.091, -28.8287
201.049790, 36.992, -25.0782
201.416001, 36.894, -21.3289
201.782212, 36.797, -17.5806
202.148423, 36.701, -13.8329
202.514634, 36.606, -10.0856
202.880845, 36.512, -6.3387
203.247055, 36.419, -2.5917
203.613266, 36.327, 1.1553
203.979477, 36.236, 4.9028
204.345688, 36.147, 8.6508
204.711899, 36.059, 12.3995
205.078110, 35.972, 16.1491
205.444321, 35.886, 19.8998
205.810532, 35.801, 23.6518
206.176743, 35.718, 27.4052
206.542954, 35.636, 31.1603
206.909164, 35.556, 34.9171
207.275375, 35.477, 38.6757
207.641586, 35.399, 42.4364
208.007797, 35.323, 46.1993
208.374008, 35.248, 49.9646
208.740219, 35.174, 53.7322
209.106430, 35.102, 57.5026
209.472641, 35.031, 61.2756
209.838852, 34.962, 65.0514
210.205063, 34.895, 68.8301
210.571274, 34.828, 72.6120
210.937484, 34.764, 76.3970
211.303695, 34.701, 80.1852
211.669906, 34.639, 83.9768
212.036117, 34.579, 87.7719
212.402328, 34.520, 91.5704
212.768539, 34.463, 95.3727
213.134750, 34.407, 99.1786
213.500961, 34.353, 102.9882
213.867172, 34.300, 106.8018
214.233383, 34.249, 110.6192
214.599594, 34.199, 114.4406
214.965804, 34.150, 118.2660
215.332015, 34.103, 122.0955
215.698226, 34.057, 125.9291
216.064437, 34.012, 129.7668
216.430648, 33.969, 133.6088
216.796859, 33.928, 137.4550
217.163070, 33.887, 141.3054
217.529281, 33.848, 145.1602
217.895492, 33.810, 149.0190
218.261703, 33.773, 152.8823
218.627914, 33.737, 156.7500
218.994124, 33.703, 160.6221
219.360335, 33.669, 164.4983
219.726546, 33.637, 168.3788
220.092757, 33.606, 172.2637
220.458968, 33.575, 176.1527
220.825179, 33.546, -179.9540
221.191390, 33.518, -176.0565
221.557601, 33.491, -172.1548
221.923812, 33.464, -168.2491
222.290023, 33.439, -164.3394
222.656234, 33.414, -160.4255
223.022444, 33.391, -156.5081
223.388655, 33.368, -152.5865
223.754866, 33.346, -148.6614
224.121077, 33.325, -144.7327
224.487288, 33.304, -140.8004
224.853499, 33.284, -136.8647
225.219710, 33.265, -132.9260
225.585921, 33.247, -128.9840
225.952132, 33.229, -125.0391
226.318343, 33.212, -121.0913
226.684554, 33.196, -117.1411
227.050764, 33.180, -113.1882
227.416975, 33.165, -109.2332
227.783186, 33.150, -105.2761
228.149397, 33.136, -101.3171
228.515608, 33.123, -97.3564
228.881819, 33.110, -93.3944
229.248030, 33.098, -89.4312
229.614241, 33.086, -85.4669
229.980452, 33.075, -81.5020
230.346663, 33.064, -77.5366
230.712873, 33.053, -73.5709
231.079084, 33.043, -69.6053
231.445295, 33.034, -65.6400
231.811506, 33.025, -61.6753
232.177717, 33.016, -57.7114
232.543928, 33.008, -53.7485
232.910139, 33.000, -49.7871
233.276350, 32.993, -45.8274
233.642561, 32.986, -41.8695
234.008772, 32.979, -37.9138
234.374983, 32.973, -33.9606
234.741193, 32.966, -30.0100
235.107404, 32.961, -26.0625
235.473615, 32.955, -22.1182
235.839826, 32.950, -18.1774
236.206037, 32.945, -14.2404
236.572248, 32.940, -10.3073
236.938459, 32.935, -6.3783
237.304670, 32.931, -2.4539
237.670881, 32.926, 1.4658
238.037092, 32.922, 5.3807
238.403303, 32.918, 9.2905
238.769513, 32.914, 13.1949
239.135724, 32.910, 17.0939
239.501935, 32.906, 20.9872
239.868146, 32.903, 24.8746
240.234357, 32.899, 28.7560
240.600568, 32.895, 32.6312
240.966779, 32.891, 36.5000
241.332990, 32.888, 40.3624
241.699201, 32.884, 44.2181
242.065412, 32.880, 48.0671
242.431623, 32.876, 51.9093
242.797833, 32.872, 55.7445
243.164044, 32.867, 59.5726
243.530255, 32.863, 63.3936
243.896466, 32.858, 67.2074
244.262677, 32.854, 71.0138
244.628888, 32.849, 74.8130
244.995099, 32.843, 78.6047
245.361310, 32.838, 82.3890
245.727521, 32.832, 86.1659
246.093732, 32.826, 89.9352
246.459943, 32.820, 93.6970
246.826153, 32.813, 97.4514
247.192364, 32.806, 101.1984
247.558575, 32.798, 104.9377
247.924786, 32.791, 108.6697
248.290997, 32.782, 112.3943
248.657208, 32.774, 116.1115
249.023419, 32.765, 119.8213
249.389630, 32.756, 123.5239
249.755841, 32.746, 127.2194
250.122052, 32.735, 130.9077
250.488263, 32.725, 134.5890
250.854473, 32.713, 138.2633
251.220684, 32.702, 141.9308
251.586895, 32.689, 145.5917
251.953106, 32.676, 149.2458
252.319317, 32.663, 152.8936
252.685528, 32.649, 156.5349
253.051739, 32.635, 160.1700
253.417950, 32.620, 163.7991
253.784161, 32.605, 167.4221
254.150372, 32.589, 171.0396
254.516582, 32.572, 174.6511
254.882793, 32.555, 178.2574
255.249004, 32.537, -178.1417
255.615215, 32.519, -174.5459
255.981426, 32.500, -170.9551
256.347637, 32.481, -167.3691
256.713848, 32.461, -163.7877
257.080059, 32.440, -160.2108
257.446270, 32.419, -156.6381
257.812481, 32.397, -153.0695
258.178692, 32.375, -149.5046
258.544902, 32.353, -145.9436
258.911113, 32.329, -142.3861
259.277324, 32.306, -138.8319
259.643535, 32.281, -135.2809
260.009746, 32.256, -131.7328
260.375957, 32.231, -128.1875
260.742168, 32.205, -124.6449
261.108379, 32.179, -121.1047
261.474590, 32.152, -117.5668
261.840801, 32.125, -114.0309
262.207012, 32.098, -110.4968
262.573222, 32.070, -106.9646
262.939433, 32.041, -103.4340
263.305644, 32.012, -99.9047
263.671855, 31.983, -96.3767
264.038066, 31.953, -92.8497
264.404277, 31.923, -89.3237
264.770488, 31.893, -85.7985
265.136699, 31.862, -82.2738
265.502910, 31.831, -78.7496
265.869121, 31.800, -75.2257
266.235332, 31.769, -71.7019
266.601542, 31.737, -68.1785
266.967753, 31.705, -64.6547
267.333964, 31.672, -61.1305
267.700175, 31.640, -57.6063
268.066386, 31.607, -54.0814
268.432597, 31.574, -50.5559
268.798808, 31.541, -47.0297
269.165019, 31.508, -43.5026
269.531230, 31.474, -39.9745
269.897441, 31.441, -36.4452
270.263652, 31.407, -32.9147
270.629862, 31.374, -29.3828
270.996073, 31.340, -25.8495
271.362284, 31.306, -22.3145
271.728495, 31.272, -18.7780
272.094706, 31.238, -15.2396
272.460917, 31.204, -11.6991
272.827128, 31.170, -8.1569
273.193339, 31.136, -4.6123
273.559550, 31.102, -1.0653
273.925761, 31.068, 2.4838
