Freq(Hz), SPL(dB), Phase(degrees)
20.141602, 65.959, -177.7003
20.507812, 65.891, -177.6016
20.874023, 66.867, -179.2049
21.240234, 68.052, 178.4383
21.606445, 69.329, 175.3798
21.972656, 70.631, 171.6915
22.338867, 71.923, 167.4709
22.705078, 73.194, 162.8358
23.071289, 74.436, 157.9088
23.437500, 75.648, 152.7978
23.803711, 76.829, 147.5829
24.169922, 77.979, 142.3137
24.536132, 79.098, 137.0161
24.902343, 80.184, 131.7020
25.268554, 81.237, 126.3762
25.634765, 82.255, 121.0365
26.000976, 83.237, 115.6704
26.367187, 84.181, 110.2513
26.733398, 85.083, 104.7391
27.099609, 85.941, 99.0846
27.465820, 86.750, 93.2369
27.832031, 87.507, 87.1485
28.198242, 88.209, 80.7791
28.564452, 88.851, 74.0979
28.930663, 89.430, 67.0869
29.296874, 89.941, 59.7460
29.663085, 90.382, 52.0998
30.029296, 90.751, 44.2010
30.395507, 91.046, 36.1298
30.761718, 91.270, 27.9866
31.127929, 91.425, 19.8799
31.494140, 91.518, 11.9116
31.860351, 91.554, 4.1637
32.226562, 91.542, -3.3099
32.592772, 91.490, -10.4851
32.958983, 91.402, -17.3607
33.325194, 91.282, -23.9464
33.691405, 91.134, -30.2480
34.057616, 90.955, -36.2566
34.423827, 90.746, -41.9430
34.790038, 90.503, -47.2587
35.156249, 90.226, -52.1423
35.522460, 89.913, -56.5278
35.888671, 89.566, -60.3527
36.254882, 89.186, -63.5647
36.621092, 88.776, -66.1259
36.987303, 88.339, -68.0145
37.353514, 87.881, -69.2255
37.719725, 87.408, -69.7690
38.085936, 86.926, -69.6707
38.452147, 86.443, -68.9700
38.818358, 85.969, -67.7198
39.184569, 85.513, -65.9855
39.550780, 85.087, -63.8434
39.916991, 84.701, -61.3794
40.283201, 84.368, -58.6874
40.649412, 84.095, -55.8662
41.015623, 83.889, -53.0168
41.381834, 83.752, -50.2383
41.748045, 83.681, -47.6239
42.114256, 83.670, -45.2568
42.480467, 83.709, -43.2063
42.846678, 83.784, -41.5251
43.212889, 83.884, -40.2471
43.579100, 83.997, -39.3868
43.945311, 84.111, -38.9396
44.311521, 84.217, -38.8833
44.677732, 84.308, -39.1801
45.043943, 84.377, -39.7798
45.410154, 84.420, -40.6239
45.776365, 84.436, -41.6493
46.142576, 84.422, -42.7916
46.508787, 84.380, -43.9894
46.874998, 84.309, -45.1868
47.241209, 84.213, -46.3354
47.607420, 84.093, -47.3965
47.973631, 83.953, -48.3403
48.339841, 83.795, -49.1472
48.706052, 83.623, -49.8062
49.072263, 83.440, -50.3137
49.438474, 83.249, -50.6724
49.804685, 83.052, -50.8893
50.170896, 82.854, -50.9738
50.537107, 82.654, -50.9363
50.903318, 82.456, -50.7869
51.269529, 82.262, -50.5339
51.635740, 82.071, -50.1840
52.001951, 81.886, -49.7415
52.368161, 81.708, -49.2094
52.734372, 81.537, -48.5894
53.100583, 81.375, -47.8832
53.466794, 81.222, -47.0927
53.833005, 81.081, -46.2212
54.199216, 80.953, -45.2737
54.565427, 80.839, -44.2571
54.931638, 80.740, -43.1805
55.297849, 80.657, -42.0552
55.664060, 80.592, -40.8940
56.030271, 80.544, -39.7110
56.396481, 80.514, -38.5212
56.762692, 80.501, -37.3398
57.128903, 80.504, -36.1813
57.495114, 80.522, -35.0594
57.861325, 80.553, -33.9857
58.227536, 80.596, -32.9705
58.593747, 80.648, -32.0210
58.959958, 80.709, -31.1426
59.326169, 80.775, -30.3381
59.692380, 80.846, -29.6083
60.058591, 80.920, -28.9523
60.424801, 80.995, -28.3677
60.791012, 81.071, -27.8513
61.157223, 81.148, -27.3994
61.523434, 81.223, -27.0084
61.889645, 81.298, -26.6747
62.255856, 81.371, -26.3953
62.622067, 81.442, -26.1678
62.988278, 81.510, -25.9905
63.354489, 81.576, -25.8621
63.720700, 81.639, -25.7817
64.086910, 81.699, -25.7484
64.453121, 81.753, -25.7611
64.819332, 81.803, -25.8185
65.185543, 81.847, -25.9182
65.551754, 81.884, -26.0573
65.917965, 81.914, -26.2314
66.284176, 81.936, -26.4356
66.650387, 81.950, -26.6635
67.016598, 81.953, -26.9080
67.382809, 81.947, -27.1608
67.749020, 81.931, -27.4135
68.115230, 81.903, -27.6567
68.481441, 81.865, -27.8812
68.847652, 81.816, -28.0776
69.213863, 81.756, -28.2367
69.580074, 81.685, -28.3500
69.946285, 81.603, -28.4095
70.312496, 81.511, -28.4080
70.678707, 81.409, -28.3392
71.044918, 81.298, -28.1982
71.411129, 81.178, -27.9808
71.777340, 81.050, -27.6844
72.143550, 80.915, -27.3073
72.509761, 80.773, -26.8490
72.875972, 80.625, -26.3103
73.242183, 80.472, -25.6929
73.608394, 80.315, -24.9994
73.974605, 80.155, -24.2332
74.340816, 79.992, -23.3986
74.707027, 79.828, -22.5001
75.073238, 79.663, -21.5431
75.439449, 79.497, -20.5328
75.805660, 79.333, -19.4751
76.171870, 79.171, -18.3756
76.538081, 79.011, -17.2399
76.904292, 78.854, -16.0737
77.270503, 78.700, -14.8823
77.636714, 78.551, -13.6710
78.002925, 78.407, -12.4446
78.369136, 78.268, -11.2077
78.735347, 78.135, -9.9645
79.101558, 78.007, -8.7191
79.467769, 77.886, -7.4749
79.833980, 77.772, -6.2352
80.200190, 77.663, -5.0031
80.566401, 77.562, -3.7810
80.932612, 77.466, -2.5715
81.298823, 77.377, -1.3765
81.665034, 77.295, -0.1978
82.031245, 77.218, 0.9631
82.397456, 77.147, 2.1047
82.763667, 77.082, 3.2262
83.129878, 77.022, 4.3267
83.496089, 76.967, 5.4055
83.862300, 76.916, 6.4622
84.228510, 76.869, 7.4967
84.594721, 76.826, 8.5089
84.960932, 76.786, 9.4990
85.327143, 76.749, 10.4671
85.693354, 76.715, 11.4137
86.059565, 76.683, 12.3394
86.425776, 76.653, 13.2445
86.791987, 76.624, 14.1298
87.158198, 76.597, 14.9957
87.524409, 76.571, 15.8430
87.890619, 76.546, 16.6721
88.256830, 76.521, 17.4836
88.623041, 76.497, 18.2780
88.989252, 76.472, 19.0558
89.355463, 76.448, 19.8173
89.721674, 76.423, 20.5631
90.087885, 76.399, 21.2935
90.454096, 76.373, 22.0090
90.820307, 76.347, 22.7101
91.186518, 76.320, 23.3973
91.552729, 76.291, 24.0712
91.918939, 76.262, 24.7324
92.285150, 76.231, 25.3818
92.651361, 76.198, 26.0201
93.017572, 76.164, 26.6483
93.383783, 76.128, 27.2673
93.749994, 76.090, 27.8782
94.116205, 76.050, 28.4819
94.482416, 76.008, 29.0795
94.848627, 75.963, 29.6720
95.214838, 75.917, 30.2604
95.581049, 75.869, 30.8456
95.947259, 75.818, 31.4285
96.313470, 75.766, 32.0099
96.679681, 75.711, 32.5905
97.045892, 75.655, 33.1709
97.412103, 75.596, 33.7516
97.778314, 75.536, 34.3330
98.144525, 75.474, 34.9154
98.510736, 75.410, 35.4991
98.876947, 75.344, 36.0844
99.243158, 75.277, 36.6711
99.609369, 75.209, 37.2594
99.975579, 75.139, 37.8494
100.341790, 75.067, 38.4409
100.708001, 74.995, 39.0341
101.074212, 74.920, 39.6288
101.440423, 74.845, 40.2251
101.806634, 74.768, 40.8231
102.172845, 74.690, 41.4228
102.539056, 74.610, 42.0244
102.905267, 74.530, 42.6281
103.271478, 74.447, 43.2343
103.637689, 74.364, 43.8433
104.003899, 74.278, 44.4556
104.370110, 74.192, 45.0716
104.736321, 74.103, 45.6920
105.102532, 74.014, 46.3174
105.468743, 73.922, 46.9485
105.834954, 73.829, 47.5859
106.201165, 73.734, 48.2306
106.567376, 73.637, 48.8832
106.933587, 73.539, 49.5446
107.299798, 73.438, 50.2155
107.666009, 73.336, 50.8966
108.032219, 73.232, 51.5889
108.398430, 73.127, 52.2931
108.764641, 73.019, 53.0098
109.130852, 72.910, 53.7399
109.497063, 72.798, 54.4840
109.863274, 72.685, 55.2428
110.229485, 72.570, 56.0170
110.595696, 72.453, 56.8071
110.961907, 72.334, 57.6139
111.328118, 72.214, 58.4377
111.694328, 72.091, 59.2793
112.060539, 71.967, 60.1391
112.426750, 71.841, 61.0175
112.792961, 71.713, 61.9149
113.159172, 71.584, 62.8317
113.525383, 71.453, 63.7683
113.891594, 71.320, 64.7249
114.257805, 71.185, 65.7017
114.624016, 71.049, 66.6989
114.990227, 70.912, 67.7165
115.356438, 70.772, 68.7546
115.722648, 70.632, 69.8133
116.088859, 70.489, 70.8923
116.455070, 70.346, 71.9916
116.821281, 70.201, 73.1109
117.187492, 70.055, 74.2498
117.553703, 69.908, 75.4082
117.919914, 69.759, 76.5856
118.286125, 69.609, 77.7815
118.652336, 69.459, 78.9953
119.018547, 69.307, 80.2266
119.384758, 69.155, 81.4747
119.750968, 69.001, 82.7389
120.117179, 68.847, 84.0186
120.483390, 68.693, 85.3129
120.849601, 68.537, 86.6212
121.215812, 68.382, 87.9427
121.582023, 68.225, 89.2765
121.948234, 68.069, 90.6219
122.314445, 67.912, 91.9781
122.680656, 67.755, 93.3442
123.046867, 67.597, 94.7195
123.413078, 67.440, 96.1033
123.779288, 67.283, 97.4947
124.145499, 67.125, 98.8929
124.511710, 66.968, 100.2974
124.877921, 66.811, 101.7074
125.244132, 66.654, 103.1222
125.610343, 66.498, 104.5413
125.976554, 66.342, 105.9638
126.342765, 66.186, 107.3894
126.708976, 66.031, 108.8174
127.075187, 65.877, 110.2472
127.441398, 65.723, 111.6784
127.807608, 65.569, 113.1104
128.173819, 65.417, 114.5427
128.540030, 65.265, 115.9749
128.906241, 65.114, 117.4066
129.272452, 64.964, 118.8373
129.638663, 64.814, 120.2667
130.004874, 64.666, 121.6944
130.371085, 64.519, 123.1201
130.737296, 64.372, 124.5435
131.103507, 64.226, 125.9643
131.469718, 64.082, 127.3824
131.835928, 63.938, 128.7975
132.202139, 63.796, 130.2098
132.568350, 63.654, 131.6190
132.934561, 63.513, 133.0252
133.300772, 63.374, 134.4285
133.666983, 63.235, 135.8290
134.033194, 63.097, 137.2271
134.399405, 62.960, 138.6228
134.765616, 62.823, 140.0166
135.131827, 62.688, 141.4089
135.498037, 62.553, 142.8001
135.864248, 62.418, 144.1907
136.230459, 62.284, 145.5814
136.596670, 62.151, 146.9727
136.962881, 62.018, 148.3654
137.329092, 61.885, 149.7599
137.695303, 61.752, 151.1571
138.061514, 61.620, 152.5577
138.427725, 61.487, 153.9624
138.793936, 61.355, 155.3720
139.160147, 61.222, 156.7871
139.526357, 61.090, 158.2085
139.892568, 60.957, 159.6368
140.258779, 60.824, 161.0728
140.624990, 60.690, 162.5170
140.991201, 60.556, 163.9700
141.357412, 60.422, 165.4324
141.723623, 60.287, 166.9048
142.089834, 60.152, 168.3875
142.456045, 60.016, 169.8809
142.822256, 59.880, 171.3855
143.188467, 59.743, 172.9016
143.554677, 59.606, 174.4294
143.920888, 59.468, 175.9692
144.287099, 59.329, 177.5211
144.653310, 59.189, 179.0854
145.019521, 59.049, -179.3380
145.385732, 58.908, -177.7488
145.751943, 58.767, -176.1472
146.118154, 58.624, -174.5332
146.484365, 58.481, -172.9067
146.850576, 58.338, -171.2680
147.216787, 58.193, -169.6171
147.582997, 58.048, -167.9541
147.949208, 57.903, -166.2794
148.315419, 57.756, -164.5932
148.681630, 57.609, -162.8956
149.047841, 57.461, -161.1871
149.414052, 57.313, -159.4680
149.780263, 57.164, -157.7386
150.146474, 57.014, -155.9993
150.512685, 56.864, -154.2506
150.878896, 56.714, -152.4929
151.245107, 56.562, -150.7267
151.611317, 56.411, -148.9525
151.977528, 56.258, -147.1707
152.343739, 56.105, -145.3819
152.709950, 55.952, -143.5866
153.076161, 55.799, -141.7854
153.442372, 55.644, -139.9787
153.808583, 55.490, -138.1671
154.174794, 55.335, -136.3510
154.541005, 55.180, -134.5311
154.907216, 55.025, -132.7076
155.273427, 54.869, -130.8812
155.639637, 54.713, -129.0523
156.005848, 54.557, -127.2211
156.372059, 54.400, -125.3882
156.738270, 54.243, -123.5538
157.104481, 54.087, -121.7183
157.470692, 53.930, -119.8819
157.836903, 53.772, -118.0449
158.203114, 53.615, -116.2074
158.569325, 53.458, -114.3696
158.935536, 53.300, -112.5317
159.301746, 53.143, -110.6937
159.667957, 52.985, -108.8558
160.034168, 52.827, -107.0178
160.400379, 52.669, -105.1799
160.766590, 52.511, -103.3421
161.132801, 52.354, -101.5042
161.499012, 52.196, -99.6662
161.865223, 52.038, -97.8280
162.231434, 51.880, -95.9896
162.597645, 51.722, -94.1509
162.963856, 51.564, -92.3116
163.330066, 51.406, -90.4718
163.696277, 51.247, -88.6313
164.062488, 51.089, -86.7900
164.428699, 50.931, -84.9478
164.794910, 50.773, -83.1046
165.161121, 50.615, -81.2603
165.527332, 50.457, -79.4148
165.893543, 50.298, -77.5682
166.259754, 50.140, -75.7203
166.625965, 49.982, -73.8712
166.992176, 49.824, -72.0208
167.358386, 49.665, -70.1693
167.724597, 49.507, -68.3167
168.090808, 49.348, -66.4630
168.457019, 49.190, -64.6085
168.823230, 49.031, -62.7533
169.189441, 48.873, -60.8976
169.555652, 48.714, -59.0416
169.921863, 48.556, -57.1857
170.288074, 48.397, -55.3301
170.654285, 48.238, -53.4752
171.020496, 48.079, -51.6214
171.386706, 47.921, -49.7691
171.752917, 47.762, -47.9189
172.119128, 47.603, -46.0712
172.485339, 47.444, -44.2267
172.851550, 47.285, -42.3858
173.217761, 47.126, -40.5494
173.583972, 46.967, -38.7180
173.950183, 46.807, -36.8924
174.316394, 46.648, -35.0733
174.682605, 46.489, -33.2616
175.048816, 46.330, -31.4580
175.415026, 46.171, -29.6634
175.781237, 46.012, -27.8787
176.147448, 45.853, -26.1047
176.513659, 45.694, -24.3425
176.879870, 45.534, -22.5930
177.246081, 45.375, -20.8571
177.612292, 45.217, -19.1358
177.978503, 45.058, -17.4302
178.344714, 44.899, -15.7411
178.710925, 44.740, -14.0697
179.077136, 44.582, -12.4168
179.443346, 44.423, -10.7837
179.809557, 44.265, -9.1711
180.175768, 44.107, -7.5802
180.541979, 43.949, -6.0120
180.908190, 43.791, -4.4674
181.274401, 43.633, -2.9473
181.640612, 43.476, -1.4528
182.006823, 43.319, 0.0152
182.373034, 43.162, 1.4558
182.739245, 43.005, 2.8682
183.105455, 42.849, 4.2514
183.471666, 42.693, 5.6047
183.837877, 42.537, 6.9271
184.204088, 42.382, 8.2181
184.570299, 42.227, 9.4767
184.936510, 42.072, 10.7024
185.302721, 41.918, 11.8944
185.668932, 41.764, 13.0522
186.035143, 41.611, 14.1750
186.401354, 41.458, 15.2625
186.767565, 41.305, 16.3139
187.133775, 41.153, 17.3289
187.499986, 41.002, 18.3071
187.866197, 40.851, 19.2480
188.232408, 40.700, 20.1513
188.598619, 40.550, 21.0166
188.964830, 40.401, 21.8437
189.331041, 40.252, 22.6323
189.697252, 40.104, 23.3823
190.063463, 39.956, 24.0935
190.429674, 39.809, 24.7657
190.795885, 39.662, 25.3990
191.162095, 39.516, 25.9932
191.528306, 39.371, 26.5484
191.894517, 39.227, 27.0645
192.260728, 39.083, 27.5418
192.626939, 38.939, 27.9802
192.993150, 38.797, 28.3801
193.359361, 38.655, 28.7415
193.725572, 38.514, 29.0647
194.091783, 38.374, 29.3499
194.457994, 38.234, 29.5976
194.824205, 38.096, 29.8080
195.190415, 37.958, 29.9814
195.556626, 37.820, 30.1185
195.922837, 37.684, 30.2195
196.289048, 37.549, 30.2850
196.655259, 37.414, 30.3155
197.021470, 37.280, 30.3116
197.387681, 37.147, 30.2739
197.753892, 37.015, 30.2029
198.120103, 36.884, 30.0994
198.486314, 36.753, 29.9641
198.852525, 36.624, 29.7976
199.218735, 36.495, 29.6008
199.584946, 36.368, 29.3743
199.951157, 36.241, 29.1191
200.317368, 36.115, 28.8359
200.683579, 35.990, 28.5256
201.049790, 35.867, 28.1891
201.416001, 35.744, 27.8272
201.782212, 35.622, 27.4410
202.148423, 35.501, 27.0313
202.514634, 35.381, 26.5991
202.880845, 35.263, 26.1453
203.247055, 35.145, 25.6710
203.613266, 35.028, 25.1771
203.979477, 34.912, 24.6646
204.345688, 34.797, 24.1345
204.711899, 34.684, 23.5879
205.078110, 34.571, 23.0256
205.444321, 34.459, 22.4488
205.810532, 34.349, 21.8583
206.176743, 34.239, 21.2553
206.542954, 34.131, 20.6406
206.909164, 34.023, 20.0152
207.275375, 33.917, 19.3800
207.641586, 33.811, 18.7360
208.007797, 33.707, 18.0842
208.374008, 33.604, 17.4252
208.740219, 33.501, 16.7601
209.106430, 33.400, 16.0897
209.472641, 33.299, 15.4146
209.838852, 33.200, 14.7359
210.205063, 33.102, 14.0540
210.571274, 33.004, 13.3699
210.937484, 32.908, 12.6840
211.303695, 32.813, 11.9971
211.669906, 32.718, 11.3098
212.036117, 32.625, 10.6226
212.402328, 32.533, 9.9360
212.768539, 32.441, 9.2505
213.134750, 32.351, 8.5666
213.500961, 32.261, 7.8846
213.867172, 32.173, 7.2048
214.233383, 32.085, 6.5276
214.599594, 31.999, 5.8533
214.965804, 31.913, 5.1821
215.332015, 31.829, 4.5142
215.698226, 31.745, 3.8497
216.064437, 31.663, 3.1887
216.430648, 31.581, 2.5313
216.796859, 31.501, 1.8776
217.163070, 31.421, 1.2275
217.529281, 31.343, 0.5810
217.895492, 31.265, -0.0619
218.261703, 31.189, -0.7014
218.627914, 31.114, -1.3376
218.994124, 31.039, -1.9706
219.360335, 30.966, -2.6007
219.726546, 30.894, -3.2281
220.092757, 30.824, -3.8530
220.458968, 30.754, -4.4757
220.825179, 30.685, -5.0964
221.191390, 30.618, -5.7156
221.557601, 30.552, -6.3334
221.923812, 30.487, -6.9504
222.290023, 30.424, -7.5668
222.656234, 30.361, -8.1830
223.022444, 30.300, -8.7994
223.388655, 30.240, -9.4165
223.754866, 30.182, -10.0346
224.121077, 30.125, -10.6543
224.487288, 30.069, -11.2758
224.853499, 30.014, -11.8996
225.219710, 29.961, -12.5263
225.585921, 29.910, -13.1562
225.952132, 29.859, -13.7898
226.318343, 29.811, -14.4275
226.684554, 29.763, -15.0697
227.050764, 29.717, -15.7170
227.416975, 29.673, -16.3697
227.783186, 29.630, -17.0282
228.149397, 29.589, -17.6930
228.515608, 29.549, -18.3645
228.881819, 29.510, -19.0430
229.248030, 29.474, -19.7290
229.614241, 29.438, -20.4229
229.980452, 29.404, -21.1249
230.346663, 29.372, -21.8354
230.712873, 29.341, -22.5548
231.079084, 29.312, -23.2833
231.445295, 29.284, -24.0213
231.811506, 29.258, -24.7690
232.177717, 29.233, -25.5267
232.543928, 29.210, -26.2946
232.910139, 29.189, -27.0729
233.276350, 29.168, -27.8619
233.642561, 29.149, -28.6616
234.008772, 29.132, -29.4722
234.374983, 29.116, -30.2939
234.741193, 29.102, -31.1267
235.107404, 29.088, -31.9707
235.473615, 29.077, -32.8260
235.839826, 29.066, -33.6926
236.206037, 29.057, -34.5705
236.572248, 29.049, -35.4596
236.938459, 29.042, -36.3600
237.304670, 29.037, -37.2715
237.670881, 29.033, -38.1941
238.037092, 29.029, -39.1276
238.403303, 29.027, -40.0719
238.769513, 29.026, -41.0268
239.135724, 29.027, -41.9922
239.501935, 29.028, -42.9677
239.868146, 29.030, -43.9533
240.234357, 29.033, -44.9486
240.600568, 29.036, -45.9534
240.966779, 29.041, -46.9673
241.332990, 29.047, -47.9902
241.699201, 29.053, -49.0215
242.065412, 29.060, -50.0611
242.431623, 29.068, -51.1086
242.797833, 29.076, -52.1635
243.164044, 29.085, -53.2256
243.530255, 29.094, -54.2943
243.896466, 29.104, -55.3694
244.262677, 29.115, -56.4505
244.628888, 29.126, -57.5370
244.995099, 29.137, -58.6287
245.361310, 29.149, -59.7250
245.727521, 29.160, -60.8256
246.093732, 29.173, -61.9301
246.459943, 29.185, -63.0379
246.826153, 29.198, -64.1487
247.192364, 29.210, -65.2621
247.558575, 29.223, -66.3777
247.924786, 29.236, -67.4949
248.290997, 29.249, -68.6135
248.657208, 29.262, -69.7331
249.023419, 29.275, -70.8531
249.389630, 29.288, -71.9733
249.755841, 29.300, -73.0932
250.122052, 29.313, -74.2125
250.488263, 29.325, -75.3308
250.854473, 29.337, -76.4478
251.220684, 29.349, -77.5631
251.586895, 29.360, -78.6764
251.953106, 29.372, -79.7874
252.319317, 29.383, -80.8957
252.685528, 29.393, -82.0011
253.051739, 29.403, -83.1033
253.417950, 29.413, -84.2020
253.784161, 29.422, -85.2970
254.150372, 29.431, -86.3879
254.516582, 29.439, -87.4747
254.882793, 29.447, -88.5570
255.249004, 29.454, -89.6347
255.615215, 29.460, -90.7075
255.981426, 29.466, -91.7753
256.347637, 29.472, -92.8378
256.713848, 29.477, -93.8951
257.080059, 29.481, -94.9468
257.446270, 29.484, -95.9930
257.812481, 29.487, -97.0333
258.178692, 29.489, -98.0678
258.544902, 29.491, -99.0964
258.911113, 29.491, -100.1188
259.277324, 29.491, -101.1352
259.643535, 29.491, -102.1453
260.009746, 29.489, -103.1492
260.375957, 29.487, -104.1467
260.742168, 29.484, -105.1379
261.108379, 29.480, -106.1227
261.474590, 29.476, -107.1010
261.840801, 29.471, -108.0729
262.207012, 29.465, -109.0384
262.573222, 29.458, -109.9974
262.939433, 29.450, -110.9498
263.305644, 29.442, -111.8958
263.671855, 29.433, -112.8354
264.038066, 29.423, -113.7684
264.404277, 29.412, -114.6950
264.770488, 29.401, -115.6152
265.136699, 29.389, -116.5289
265.502910, 29.376, -117.4362
265.869121, 29.362, -118.3371
266.235332, 29.347, -119.2316
266.601542, 29.332, -120.1197
266.967753, 29.316, -121.0015
267.333964, 29.299, -121.8769
267.700175, 29.282, -122.7459
268.066386, 29.263, -123.6086
268.432597, 29.244, -124.4650
268.798808, 29.225, -125.3150
269.165019, 29.204, -126.1587
269.531230, 29.183, -126.9960
269.897441, 29.161, -127.8269
270.263652, 29.138, -128.6514
270.629862, 29.114, -129.4695
270.996073, 29.090, -130.2811
271.362284, 29.065, -131.0861
271.728495, 29.040, -131.8846
272.094706, 29.014, -132.6764
272.460917, 28.987, -133.4616
272.827128, 28.959, -134.2399
273.193339, 28.931, -135.0114
273.559550, 28.902, -135.7758
273.925761, 28.872, -136.5332
274.291972, 28.842, -137.2835
274.658182, 28.811, -138.0264
275.024393, 28.779, -138.7618
275.390604, 28.747, -139.4897
275.756815, 28.714, -140.2098
276.123026, 28.681, -140.9220
276.489237, 28.646, -141.6261
276.855448, 28.612, -142.3219
