Freq(Hz), SPL(dB), Phase(degrees)
20.141602, 66.244, 44.3132
20.507812, 66.223, 44.4318
20.874023, 66.556, 42.5129
21.240234, 66.993, 39.7701
21.606445, 67.487, 36.3523
21.972656, 67.998, 32.4103
22.338867, 68.501, 28.0855
22.705078, 68.979, 23.5025
23.071289, 69.424, 18.7672
23.437500, 69.832, 13.9663
23.803711, 70.202, 9.1687
24.169922, 70.536, 4.4273
24.536132, 70.835, -0.2184
24.902343, 71.101, -4.7396
25.268554, 71.337, -9.1163
25.634765, 71.548, -13.3357
26.000976, 71.734, -17.3908
26.367187, 71.900, -21.2792
26.733398, 72.047, -25.0009
27.099609, 72.177, -28.5568
27.465820, 72.291, -31.9455
27.832031, 72.389, -35.1615
28.198242, 72.473, -38.1928
28.564452, 72.540, -41.0195
28.930663, 72.591, -43.6115
29.296874, 72.624, -45.9283
29.663085, 72.640, -47.9188
30.029296, 72.638, -49.5254
30.395507, 72.620, -50.6904
30.761718, 72.592, -51.3668
31.127929, 72.559, -51.5308
31.494140, 72.529, -51.1933
31.860351, 72.510, -50.4084
32.226562, 72.508, -49.2743
32.592772, 72.530, -47.9257
32.958983, 72.574, -46.5175
33.325194, 72.638, -45.2028
33.691405, 72.715, -44.1115
34.057616, 72.796, -43.3340
34.423827, 72.873, -42.9145
34.790038, 72.937, -42.8532
35.156249, 72.983, -43.1150
35.522460, 73.006, -43.6404
35.888671, 73.005, -44.3582
36.254882, 72.980, -45.1948
36.621092, 72.932, -46.0821
36.987303, 72.865, -46.9614
37.353514, 72.783, -47.7859
37.719725, 72.688, -48.5199
38.085936, 72.585, -49.1383
38.452147, 72.478, -49.6245
38.818358, 72.370, -49.9688
39.184569, 72.266, -50.1662
39.550780, 72.167, -50.2151
39.916991, 72.079, -50.1157
40.283201, 72.003, -49.8689
40.649412, 71.944, -49.4749
41.015623, 71.904, -48.9332
41.381834, 71.887, -48.2416
41.748045, 71.895, -47.3960
42.114256, 71.932, -46.3908
42.480467, 72.001, -45.2183
42.846678, 72.103, -43.8696
43.212889, 72.241, -42.3345
43.579100, 72.417, -40.6030
43.945311, 72.630, -38.6657
44.311521, 72.880, -36.5146
44.677732, 73.165, -34.1454
45.043943, 73.484, -31.5579
45.410154, 73.832, -28.7580
45.776365, 74.206, -25.7588
46.142576, 74.602, -22.5813
46.508787, 75.014, -19.2552
46.874998, 75.439, -15.8188
47.241209, 75.871, -12.3181
47.607420, 76.305, -8.8055
47.973631, 76.739, -5.3379
48.339841, 77.168, -1.9742
48.706052, 77.589, 1.2276
49.072263, 78.000, 4.2131
49.438474, 78.399, 6.9345
49.804685, 78.784, 9.3531
50.170896, 79.154, 11.4407
50.537107, 79.508, 13.1807
50.903318, 79.847, 14.5681
51.269529, 80.170, 15.6084
51.635740, 80.478, 16.3161
52.001951, 80.773, 16.7128
52.368161, 81.054, 16.8247
52.734372, 81.324, 16.6810
53.100583, 81.584, 16.3113
53.466794, 81.834, 15.7444
53.833005, 82.077, 15.0069
54.199216, 82.312, 14.1229
54.565427, 82.541, 13.1129
54.931638, 82.763, 11.9943
55.297849, 82.979, 10.7813
55.664060, 83.189, 9.4855
56.030271, 83.392, 8.1161
56.396481, 83.588, 6.6809
56.762692, 83.775, 5.1867
57.128903, 83.953, 3.6396
57.495114, 84.121, 2.0463
57.861325, 84.278, 0.4139
58.227536, 84.422, -1.2494
58.593747, 84.553, -2.9341
58.959958, 84.670, -4.6294
59.326169, 84.772, -6.3228
59.692380, 84.859, -8.0008
60.058591, 84.929, -9.6487
60.424801, 84.983, -11.2514
60.791012, 85.020, -12.7932
61.157223, 85.041, -14.2594
61.523434, 85.046, -15.6359
61.889645, 85.036, -16.9104
62.255856, 85.011, -18.0728
62.622067, 84.972, -19.1161
62.988278, 84.920, -20.0361
63.354489, 84.858, -20.8323
63.720700, 84.785, -21.5078
64.086910, 84.705, -22.0692
64.453121, 84.617, -22.5259
64.819332, 84.524, -22.8904
65.185543, 84.426, -23.1766
65.551754, 84.325, -23.3999
65.917965, 84.222, -23.5754
66.284176, 84.117, -23.7180
66.650387, 84.011, -23.8408
67.016598, 83.904, -23.9551
67.382809, 83.796, -24.0696
67.749020, 83.687, -24.1902
68.115230, 83.576, -24.3204
68.481441, 83.464, -24.4606
68.847652, 83.349, -24.6088
69.213863, 83.232, -24.7610
69.580074, 83.111, -24.9109
69.946285, 82.987, -25.0512
70.312496, 82.858, -25.1732
70.678707, 82.725, -25.2675
71.044918, 82.586, -25.3245
71.411129, 82.442, -25.3345
71.777340, 82.293, -25.2883
72.143550, 82.138, -25.1772
72.509761, 81.978, -24.9933
72.875972, 81.813, -24.7301
73.242183, 81.643, -24.3819
73.608394, 81.469, -23.9445
73.974605, 81.291, -23.4151
74.340816, 81.111, -22.7924
74.707027, 80.928, -22.0764
75.073238, 80.743, -21.2686
75.439449, 80.558, -20.3720
75.805660, 80.373, -19.3908
76.171870, 80.190, -18.3302
76.538081, 80.009, -17.1967
76.904292, 79.832, -15.9976
77.270503, 79.660, -14.7411
77.636714, 79.494, -13.4357
78.002925, 79.335, -12.0905
78.369136, 79.183, -10.7150
78.735347, 79.041, -9.3184
79.101558, 78.909, -7.9101
79.467769, 78.788, -6.4995
79.833980, 78.678, -5.0954
80.200190, 78.579, -3.7063
80.566401, 78.493, -2.3404
80.932612, 78.418, -1.0054
81.298823, 78.355, 0.2917
81.665034, 78.304, 1.5444
82.031245, 78.264, 2.7467
82.397456, 78.234, 3.8934
82.763667, 78.214, 4.9796
83.129878, 78.202, 6.0014
83.496089, 78.197, 6.9555
83.862300, 78.199, 7.8392
84.228510, 78.206, 8.6505
84.594721, 78.217, 9.3885
84.960932, 78.231, 10.0527
85.327143, 78.247, 10.6437
85.693354, 78.263, 11.1629
86.059565, 78.278, 11.6125
86.425776, 78.291, 11.9956
86.791987, 78.302, 12.3160
87.158198, 78.310, 12.5783
87.524409, 78.313, 12.7878
87.890619, 78.311, 12.9503
88.256830, 78.304, 13.0721
88.623041, 78.290, 13.1601
88.989252, 78.270, 13.2213
89.355463, 78.244, 13.2630
89.721674, 78.210, 13.2925
90.087885, 78.169, 13.3173
90.454096, 78.120, 13.3446
90.820307, 78.064, 13.3817
91.186518, 78.000, 13.4353
91.552729, 77.929, 13.5122
91.918939, 77.850, 13.6186
92.285150, 77.764, 13.7602
92.651361, 77.670, 13.9425
93.017572, 77.570, 14.1702
93.383783, 77.462, 14.4478
93.749994, 77.347, 14.7788
94.116205, 77.226, 15.1666
94.482416, 77.099, 15.6137
94.848627, 76.965, 16.1220
95.214838, 76.826, 16.6929
95.581049, 76.681, 17.3271
95.947259, 76.530, 18.0250
96.313470, 76.374, 18.7860
96.679681, 76.214, 19.6094
97.045892, 76.049, 20.4938
97.412103, 75.879, 21.4374
97.778314, 75.706, 22.4380
98.144525, 75.529, 23.4932
98.510736, 75.349, 24.6001
98.876947, 75.165, 25.7559
99.243158, 74.979, 26.9573
99.609369, 74.790, 28.2012
99.975579, 74.599, 29.4843
100.341790, 74.405, 30.8036
100.708001, 74.210, 32.1558
101.074212, 74.014, 33.5381
101.440423, 73.816, 34.9476
101.806634, 73.617, 36.3817
102.172845, 73.417, 37.8381
102.539056, 73.217, 39.3146
102.905267, 73.016, 40.8093
103.271478, 72.815, 42.3207
103.637689, 72.613, 43.8472
104.003899, 72.412, 45.3876
104.370110, 72.211, 46.9411
104.736321, 72.010, 48.5067
105.102532, 71.810, 50.0838
105.468743, 71.611, 51.6721
105.834954, 71.413, 53.2709
106.201165, 71.215, 54.8802
106.567376, 71.019, 56.4995
106.933587, 70.824, 58.1287
107.299798, 70.630, 59.7676
107.666009, 70.437, 61.4159
108.032219, 70.247, 63.0734
108.398430, 70.058, 64.7397
108.764641, 69.871, 66.4144
109.130852, 69.686, 68.0970
109.497063, 69.504, 69.7868
109.863274, 69.324, 71.4830
110.229485, 69.146, 73.1848
110.595696, 68.971, 74.8911
110.961907, 68.799, 76.6008
111.328118, 68.631, 78.3125
111.694328, 68.465, 80.0249
112.060539, 68.303, 81.7363
112.426750, 68.144, 83.4451
112.792961, 67.989, 85.1496
113.159172, 67.838, 86.8479
113.525383, 67.691, 88.5381
113.891594, 67.547, 90.2184
114.257805, 67.408, 91.8867
114.624016, 67.274, 93.5412
114.990227, 67.143, 95.1801
115.356438, 67.017, 96.8014
115.722648, 66.895, 98.4037
116.088859, 66.778, 99.9851
116.455070, 66.665, 101.5444
116.821281, 66.556, 103.0801
117.187492, 66.451, 104.5912
117.553703, 66.350, 106.0767
117.919914, 66.253, 107.5358
118.286125, 66.159, 108.9679
118.652336, 66.069, 110.3727
119.018547, 65.982, 111.7498
119.384758, 65.899, 113.0993
119.750968, 65.818, 114.4213
120.117179, 65.740, 115.7162
120.483390, 65.664, 116.9844
120.849601, 65.590, 118.2266
121.215812, 65.518, 119.4435
121.582023, 65.448, 120.6361
121.948234, 65.379, 121.8053
122.314445, 65.311, 122.9523
122.680656, 65.244, 124.0782
123.046867, 65.178, 125.1844
123.413078, 65.112, 126.2722
123.779288, 65.046, 127.3429
124.145499, 64.981, 128.3980
124.511710, 64.915, 129.4390
124.877921, 64.850, 130.4672
125.244132, 64.784, 131.4841
125.610343, 64.717, 132.4912
125.976554, 64.650, 133.4899
126.342765, 64.582, 134.4816
126.708976, 64.513, 135.4677
127.075187, 64.444, 136.4496
127.441398, 64.373, 137.4285
127.807608, 64.302, 138.4057
128.173819, 64.229, 139.3824
128.540030, 64.155, 140.3598
128.906241, 64.081, 141.3389
129.272452, 64.005, 142.3210
129.638663, 63.928, 143.3068
130.004874, 63.849, 144.2976
130.371085, 63.770, 145.2941
130.737296, 63.689, 146.2972
131.103507, 63.607, 147.3079
131.469718, 63.524, 148.3268
131.835928, 63.440, 149.3549
132.202139, 63.355, 150.3928
132.568350, 63.268, 151.4413
132.934561, 63.180, 152.5011
133.300772, 63.091, 153.5728
133.666983, 63.000, 154.6573
134.033194, 62.908, 155.7550
134.399405, 62.815, 156.8667
134.765616, 62.721, 157.9931
135.131827, 62.625, 159.1346
135.498037, 62.528, 160.2919
135.864248, 62.430, 161.4657
136.230459, 62.330, 162.6563
136.596670, 62.229, 163.8645
136.962881, 62.127, 165.0905
137.329092, 62.022, 166.3350
137.695303, 61.917, 167.5983
138.061514, 61.810, 168.8808
138.427725, 61.701, 170.1827
138.793936, 61.591, 171.5043
139.160147, 61.480, 172.8458
139.526357, 61.367, 174.2071
139.892568, 61.252, 175.5884
140.258779, 61.136, 176.9894
140.624990, 61.019, 178.4102
140.991201, 60.900, 179.8502
141.357412, 60.779, -178.6907
141.723623, 60.658, -177.2132
142.089834, 60.534, -175.7177
142.456045, 60.410, -174.2048
142.822256, 60.284, -172.6754
143.188467, 60.156, -171.1302
143.554677, 60.028, -169.5701
143.920888, 59.898, -167.9961
144.287099, 59.767, -166.4091
144.653310, 59.635, -164.8102
145.019521, 59.502, -163.2006
145.385732, 59.368, -161.5812
145.751943, 59.233, -159.9534
146.118154, 59.097, -158.3183
146.484365, 58.961, -156.6769
146.850576, 58.823, -155.0306
147.216787, 58.685, -153.3804
147.582997, 58.546, -151.7274
147.949208, 58.407, -150.0727
148.315419, 58.267, -148.4175
148.681630, 58.126, -146.7627
149.047841, 57.985, -145.1093
149.414052, 57.844, -143.4582
149.780263, 57.702, -141.8102
150.146474, 57.560, -140.1663
150.512685, 57.418, -138.5271
150.878896, 57.275, -136.8933
151.245107, 57.133, -135.2656
151.611317, 56.990, -133.6446
151.977528, 56.847, -132.0306
152.343739, 56.704, -130.4242
152.709950, 56.561, -128.8258
153.076161, 56.418, -127.2357
153.442372, 56.275, -125.6541
153.808583, 56.133, -124.0814
154.174794, 55.990, -122.5176
154.541005, 55.847, -120.9630
154.907216, 55.705, -119.4174
155.273427, 55.563, -117.8812
155.639637, 55.420, -116.3541
156.005848, 55.279, -114.8362
156.372059, 55.137, -113.3275
156.738270, 54.995, -111.8277
157.104481, 54.854, -110.3368
157.470692, 54.713, -108.8547
157.836903, 54.572, -107.3812
158.203114, 54.431, -105.9161
158.569325, 54.291, -104.4592
158.935536, 54.150, -103.0103
159.301746, 54.010, -101.5692
159.667957, 53.871, -100.1357
160.034168, 53.731, -98.7095
160.400379, 53.592, -97.2905
160.766590, 53.452, -95.8784
161.132801, 53.313, -94.4731
161.499012, 53.175, -93.0742
161.865223, 53.036, -91.6816
162.231434, 52.898, -90.2951
162.597645, 52.760, -88.9146
162.963856, 52.622, -87.5397
163.330066, 52.484, -86.1704
163.696277, 52.346, -84.8065
164.062488, 52.209, -83.4479
164.428699, 52.071, -82.0944
164.794910, 51.934, -80.7459
165.161121, 51.797, -79.4023
165.527332, 51.660, -78.0634
165.893543, 51.524, -76.7292
166.259754, 51.387, -75.3997
166.625965, 51.251, -74.0747
166.992176, 51.114, -72.7542
167.358386, 50.978, -71.4381
167.724597, 50.842, -70.1264
168.090808, 50.706, -68.8192
168.457019, 50.570, -67.5162
168.823230, 50.435, -66.2176
169.189441, 50.299, -64.9234
169.555652, 50.163, -63.6335
169.921863, 50.028, -62.3480
170.288074, 49.893, -61.0669
170.654285, 49.757, -59.7901
171.020496, 49.622, -58.5178
171.386706, 49.487, -57.2500
171.752917, 49.352, -55.9866
172.119128, 49.217, -54.7278
172.485339, 49.082, -53.4736
172.851550, 48.948, -52.2240
173.217761, 48.813, -50.9790
173.583972, 48.679, -49.7388
173.950183, 48.544, -48.5034
174.316394, 48.410, -47.2727
174.682605, 48.276, -46.0469
175.048816, 48.141, -44.8260
175.415026, 48.007, -43.6100
175.781237, 47.873, -42.3990
176.147448, 47.739, -41.1929
176.513659, 47.605, -39.9919
176.879870, 47.472, -38.7960
177.246081, 47.338, -37.6050
177.612292, 47.204, -36.4193
177.978503, 47.071, -35.2387
178.344714, 46.937, -34.0631
178.710925, 46.804, -32.8928
179.077136, 46.670, -31.7276
179.443346, 46.537, -30.5677
179.809557, 46.404, -29.4129
180.175768, 46.270, -28.2633
180.541979, 46.137, -27.1190
180.908190, 46.004, -25.9800
181.274401, 45.871, -24.8462
181.640612, 45.738, -23.7177
182.006823, 45.605, -22.5945
182.373034, 45.473, -21.4767
182.739245, 45.340, -20.3643
183.105455, 45.207, -19.2574
183.471666, 45.075, -18.1560
183.837877, 44.942, -17.0601
184.204088, 44.810, -15.9700
184.570299, 44.677, -14.8854
184.936510, 44.545, -13.8068
185.302721, 44.413, -12.7341
185.668932, 44.281, -11.6675
186.035143, 44.149, -10.6071
186.401354, 44.017, -9.5530
186.767565, 43.885, -8.5053
187.133775, 43.754, -7.4644
187.499986, 43.622, -6.4303
187.866197, 43.491, -5.4033
188.232408, 43.360, -4.3835
188.598619, 43.229, -3.3713
188.964830, 43.098, -2.3667
189.331041, 42.968, -1.3701
189.697252, 42.838, -0.3817
190.063463, 42.708, 0.5983
190.429674, 42.578, 1.5696
190.795885, 42.449, 2.5317
191.162095, 42.320, 3.4847
191.528306, 42.192, 4.4282
191.894517, 42.064, 5.3618
192.260728, 41.936, 6.2853
192.626939, 41.809, 7.1985
192.993150, 41.682, 8.1010
193.359361, 41.556, 8.9927
193.725572, 41.430, 9.8731
194.091783, 41.306, 10.7422
194.457994, 41.181, 11.5996
194.824205, 41.057, 12.4451
195.190415, 40.935, 13.2786
195.556626, 40.812, 14.0997
195.922837, 40.691, 14.9083
196.289048, 40.570, 15.7043
196.655259, 40.451, 16.4875
197.021470, 40.332, 17.2577
197.387681, 40.214, 18.0149
197.753892, 40.097, 18.7588
198.120103, 39.981, 19.4894
198.486314, 39.866, 20.2068
198.852525, 39.753, 20.9108
199.218735, 39.640, 21.6012
199.584946, 39.529, 22.2783
199.951157, 39.419, 22.9420
200.317368, 39.310, 23.5923
200.683579, 39.203, 24.2292
201.049790, 39.096, 24.8528
201.416001, 38.992, 25.4631
201.782212, 38.889, 26.0604
202.148423, 38.787, 26.6445
202.514634, 38.687, 27.2158
202.880845, 38.588, 27.7743
203.247055, 38.491, 28.3201
203.613266, 38.396, 28.8535
203.979477, 38.302, 29.3745
204.345688, 38.210, 29.8833
204.711899, 38.120, 30.3801
205.078110, 38.031, 30.8651
205.444321, 37.945, 31.3386
205.810532, 37.860, 31.8005
206.176743, 37.777, 32.2513
206.542954, 37.696, 32.6912
206.909164, 37.617, 33.1201
207.275375, 37.539, 33.5385
207.641586, 37.464, 33.9465
208.007797, 37.391, 34.3443
208.374008, 37.319, 34.7322
208.740219, 37.250, 35.1102
209.106430, 37.182, 35.4788
209.472641, 37.117, 35.8379
209.838852, 37.053, 36.1879
210.205063, 36.992, 36.5289
210.571274, 36.932, 36.8613
210.937484, 36.875, 37.1849
211.303695, 36.819, 37.5004
211.669906, 36.766, 37.8075
212.036117, 36.714, 38.1066
212.402328, 36.664, 38.3979
212.768539, 36.617, 38.6815
213.134750, 36.571, 38.9576
213.500961, 36.527, 39.2264
213.867172, 36.485, 39.4879
214.233383, 36.444, 39.7424
214.599594, 36.406, 39.9901
214.965804, 36.369, 40.2308
215.332015, 36.334, 40.4651
215.698226, 36.301, 40.6927
216.064437, 36.269, 40.9141
216.430648, 36.239, 41.1290
216.796859, 36.210, 41.3379
217.163070, 36.183, 41.5406
217.529281, 36.158, 41.7374
217.895492, 36.134, 41.9283
218.261703, 36.111, 42.1135
218.627914, 36.090, 42.2928
218.994124, 36.070, 42.4667
219.360335, 36.052, 42.6348
219.726546, 36.035, 42.7975
220.092757, 36.018, 42.9547
220.458968, 36.003, 43.1064
220.825179, 35.990, 43.2529
221.191390, 35.977, 43.3940
221.557601, 35.965, 43.5298
221.923812, 35.954, 43.6605
222.290023, 35.944, 43.7858
222.656234, 35.936, 43.9060
223.022444, 35.927, 44.0211
223.388655, 35.920, 44.1309
223.754866, 35.914, 44.2357
224.121077, 35.908, 44.3353
224.487288, 35.903, 44.4298
224.853499, 35.898, 44.5192
225.219710, 35.894, 44.6035
225.585921, 35.891, 44.6826
225.952132, 35.888, 44.7567
226.318343, 35.886, 44.8257
226.684554, 35.884, 44.8895
227.050764, 35.883, 44.9482
227.416975, 35.881, 45.0019
227.783186, 35.881, 45.0504
228.149397, 35.880, 45.0938
228.515608, 35.880, 45.1321
228.881819, 35.880, 45.1652
229.248030, 35.881, 45.1932
229.614241, 35.881, 45.2160
229.980452, 35.882, 45.2338
230.346663, 35.883, 45.2463
230.712873, 35.884, 45.2538
231.079084, 35.885, 45.2561
231.445295, 35.886, 45.2533
231.811506, 35.887, 45.2454
232.177717, 35.888, 45.2324
232.543928, 35.890, 45.2142
232.910139, 35.891, 45.1912
233.276350, 35.892, 45.1630
233.642561, 35.893, 45.1298
234.008772, 35.894, 45.0917
234.374983, 35.895, 45.0486
234.741193, 35.895, 45.0006
235.107404, 35.896, 44.9478
235.473615, 35.896, 44.8901
235.839826, 35.896, 44.8278
236.206037, 35.897, 44.7606
236.572248, 35.896, 44.6889
236.938459, 35.896, 44.6125
237.304670, 35.896, 44.5317
237.670881, 35.895, 44.4465
238.037092, 35.894, 44.3569
238.403303, 35.893, 44.2629
238.769513, 35.891, 44.1649
239.135724, 35.889, 44.0627
239.501935, 35.887, 43.9565
239.868146, 35.885, 43.8463
240.234357, 35.882, 43.7324
240.600568, 35.879, 43.6147
240.966779, 35.876, 43.4935
241.332990, 35.873, 43.3688
241.699201, 35.869, 43.2406
242.065412, 35.865, 43.1093
242.431623, 35.861, 42.9747
242.797833, 35.856, 42.8372
243.164044, 35.851, 42.6968
243.530255, 35.846, 42.5536
243.896466, 35.840, 42.4077
244.262677, 35.834, 42.2595
244.628888, 35.828, 42.1088
244.995099, 35.821, 41.9559
245.361310, 35.814, 41.8010
245.727521, 35.807, 41.6442
246.093732, 35.800, 41.4856
246.459943, 35.792, 41.3254
246.826153, 35.784, 41.1637
247.192364, 35.775, 41.0007
247.558575, 35.766, 40.8367
247.924786, 35.757, 40.6716
248.290997, 35.748, 40.5057
248.657208, 35.738, 40.3392
249.023419, 35.728, 40.1724
249.389630, 35.717, 40.0051
249.755841, 35.706, 39.8378
250.122052, 35.695, 39.6705
250.488263, 35.684, 39.5034
250.854473, 35.672, 39.3369
251.220684, 35.660, 39.1709
251.586895, 35.648, 39.0059
251.953106, 35.635, 38.8417
252.319317, 35.622, 38.6788
252.685528, 35.608, 38.5173
253.051739, 35.594, 38.3574
253.417950, 35.580, 38.1993
253.784161, 35.566, 38.0432
254.150372, 35.551, 37.8893
254.516582, 35.536, 37.7378
254.882793, 35.521, 37.5889
255.249004, 35.505, 37.4427
255.615215, 35.489, 37.2997
255.981426, 35.472, 37.1599
256.347637, 35.455, 37.0234
256.713848, 35.438, 36.8906
257.080059, 35.421, 36.7616
257.446270, 35.403, 36.6366
257.812481, 35.384, 36.5159
258.178692, 35.366, 36.3995
258.544902, 35.347, 36.2877
258.911113, 35.328, 36.1808
259.277324, 35.308, 36.0789
259.643535, 35.288, 35.9821
260.009746, 35.268, 35.8906
260.375957, 35.247, 35.8047
260.742168, 35.226, 35.7245
261.108379, 35.205, 35.6501
261.474590, 35.183, 35.5818
261.840801, 35.161, 35.5197
262.207012, 35.139, 35.4639
262.573222, 35.116, 35.4146
262.939433, 35.093, 35.3720
263.305644, 35.070, 35.3362
263.671855, 35.046, 35.3073
264.038066, 35.022, 35.2855
264.404277, 34.998, 35.2708
264.770488, 34.973, 35.2635
265.136699, 34.948, 35.2635
265.502910, 34.923, 35.2712
265.869121, 34.897, 35.2864
266.235332, 34.871, 35.3094
266.601542, 34.845, 35.3402
266.967753, 34.819, 35.3789
267.333964, 34.792, 35.4257
267.700175, 34.764, 35.4805
268.066386, 34.737, 35.5433
268.432597, 34.709, 35.6145
268.798808, 34.680, 35.6938
269.165019, 34.652, 35.7815
269.531230, 34.623, 35.8776
269.897441, 34.593, 35.9820
270.263652, 34.564, 36.0948
270.629862, 34.534, 36.2162
270.996073, 34.503, 36.3459
271.362284, 34.473, 36.4843
271.728495, 34.442, 36.6311
272.094706, 34.410, 36.7865
272.460917, 34.379, 36.9503
272.827128, 34.347, 37.1227
273.193339, 34.314, 37.3036
273.559550, 34.282, 37.4930
273.925761, 34.249, 37.6909
274.291972, 34.215, 37.8972
274.658182, 34.182, 38.1119
275.024393, 34.148, 38.3351
275.390604, 34.113, 38.5666
275.756815, 34.078, 38.8063
276.123026, 34.043, 39.0544
276.489237, 34.008, 39.3107
276.855448, 33.972, 39.5750
277.221659, 33.936, 39.8474
277.587870, 33.899, 40.1279
277.954081, 33.862, 40.4163
278.320291, 33.825, 40.7125
278.686502, 33.787, 41.0165
279.052713, 33.749, 41.3281
279.418924, 33.711, 41.6473
