Freq(Hz), SPL(dB), Phase(degrees)
20.141602, 65.047, 64.0369
20.507812, 65.007, 63.9416
20.874023, 65.604, 65.5037
21.240234, 66.407, 67.6277
21.606445, 67.370, 70.0267
21.972656, 68.454, 72.3570
22.338867, 69.632, 74.2262
22.705078, 70.881, 75.2022
23.071289, 72.184, 74.8231
23.437500, 73.524, 72.6096
23.803711, 74.885, 68.0804
24.169922, 76.252, 60.7766
24.536132, 77.612, 50.3049
24.902343, 78.955, 36.3971
25.268554, 80.270, 18.9745
25.634765, 81.552, -1.8036
26.000976, 82.793, -25.5245
26.367187, 83.988, -51.5488
26.733398, 85.135, -79.0739
27.099609, 86.227, -107.2194
27.465820, 87.264, -135.1167
27.832031, 88.240, -161.9891
28.198242, 89.153, 172.7864
28.564452, 89.999, 149.6415
28.930663, 90.776, 128.8063
29.296874, 91.480, 110.3276
29.663085, 92.107, 94.1110
30.029296, 92.656, 79.9759
30.395507, 93.124, 67.7108
30.761718, 93.510, 57.1159
31.127929, 93.814, 48.0287
31.494140, 94.038, 40.3330
31.860351, 94.186, 33.9572
32.226562, 94.260, 28.8655
32.592772, 94.265, 25.0503
32.958983, 94.206, 22.5239
33.325194, 94.086, 21.3137
33.691405, 93.907, 21.4567
34.057616, 93.674, 22.9943
34.423827, 93.389, 25.9652
34.790038, 93.053, 30.3965
35.156249, 92.670, 36.2931
35.522460, 92.243, 43.6305
35.888671, 91.778, 52.3481
36.254882, 91.277, 62.3479
36.621092, 90.748, 73.4978
36.987303, 90.195, 85.6375
37.353514, 89.627, 98.5873
37.719725, 89.050, 112.1577
38.085936, 88.475, 126.1594
38.452147, 87.910, 140.4119
38.818358, 87.367, 154.7499
39.184569, 86.858, 169.0275
39.550780, 86.395, -176.8805
39.916991, 85.990, -163.0780
40.283201, 85.652, -149.6491
40.649412, 85.388, -136.6597
41.015623, 85.200, -124.1598
41.381834, 85.084, -112.1851
41.748045, 85.034, -100.7593
42.114256, 85.038, -89.8948
42.480467, 85.084, -79.5942
42.846678, 85.159, -69.8507
43.212889, 85.251, -60.6487
43.579100, 85.347, -51.9647
43.945311, 85.439, -43.7674
44.311521, 85.517, -36.0189
44.677732, 85.577, -28.6759
45.043943, 85.612, -21.6907
45.410154, 85.621, -15.0139
45.776365, 85.601, -8.5951
46.142576, 85.552, -2.3859
46.508787, 85.473, 3.6596
46.874998, 85.367, 9.5827
47.241209, 85.234, 15.4205
47.607420, 85.077, 21.2050
47.973631, 84.897, 26.9641
48.339841, 84.698, 32.7221
48.706052, 84.481, 38.5014
49.072263, 84.249, 44.3228
49.438474, 84.003, 50.2071
49.804685, 83.745, 56.1758
50.170896, 83.478, 62.2513
50.537107, 83.202, 68.4574
50.903318, 82.920, 74.8185
51.269529, 82.634, 81.3591
51.635740, 82.344, 88.1029
52.001951, 82.053, 95.0714
52.368161, 81.763, 102.2827
52.734372, 81.476, 109.7506
53.100583, 81.196, 117.4833
53.466794, 80.926, 125.4832
53.833005, 80.667, 133.7464
54.199216, 80.424, 142.2632
54.565427, 80.200, 151.0182
54.931638, 79.996, 159.9913
55.297849, 79.816, 169.1586
55.664060, 79.661, 178.4936
56.030271, 79.531, -172.0313
56.396481, 79.427, -162.4438
56.762692, 79.346, -152.7703
57.128903, 79.288, -143.0347
57.495114, 79.249, -133.2574
57.861325, 79.226, -123.4547
58.227536, 79.216, -113.6385
58.593747, 79.214, -103.8156
58.959958, 79.218, -93.9881
59.326169, 79.225, -84.1541
59.692380, 79.230, -74.3077
60.058591, 79.231, -64.4399
60.424801, 79.227, -54.5394
60.791012, 79.215, -44.5939
61.157223, 79.195, -34.5899
61.523434, 79.165, -24.5146
61.889645, 79.125, -14.3557
62.255856, 79.075, -4.1024
62.622067, 79.016, 6.2540
62.988278, 78.948, 16.7205
63.354489, 78.872, 27.3017
63.720700, 78.788, 38.0001
64.086910, 78.697, 48.8163
64.453121, 78.601, 59.7489
64.819332, 78.499, 70.7954
65.185543, 78.394, 81.9520
65.551754, 78.285, 93.2146
65.917965, 78.173, 104.5782
66.284176, 78.060, 116.0381
66.650387, 77.944, 127.5894
67.016598, 77.828, 139.2272
67.382809, 77.711, 150.9470
67.749020, 77.593, 162.7452
68.115230, 77.474, 174.6178
68.481441, 77.355, -173.4386
68.847652, 77.237, -161.4271
69.213863, 77.118, -149.3502
69.580074, 76.998, -137.2101
69.946285, 76.879, -125.0087
70.312496, 76.759, -112.7473
70.678707, 76.638, -100.4266
71.044918, 76.517, -88.0472
71.411129, 76.395, -75.6090
71.777340, 76.271, -63.1114
72.143550, 76.146, -50.5535
72.509761, 76.019, -37.9342
72.875972, 75.890, -25.2520
73.242183, 75.759, -12.5052
73.608394, 75.626, 0.3076
73.974605, 75.490, 13.1882
74.340816, 75.352, 26.1379
74.707027, 75.212, 39.1581
75.073238, 75.070, 52.2497
75.439449, 74.926, 65.4132
75.805660, 74.781, 78.6486
76.171870, 74.634, 91.9557
76.538081, 74.487, 105.3337
76.904292, 74.339, 118.7812
77.270503, 74.191, 132.2966
77.636714, 74.043, 145.8779
78.002925, 73.897, 159.5222
78.369136, 73.753, 173.2268
78.735347, 73.612, -173.0115
79.101558, 73.473, -159.1962
79.467769, 73.338, -145.3309
79.833980, 73.208, -131.4197
80.200190, 73.083, -117.4666
80.566401, 72.963, -103.4756
80.932612, 72.850, -89.4509
81.298823, 72.743, -75.3970
81.665034, 72.644, -61.3181
82.031245, 72.553, -47.2186
82.397456, 72.469, -33.1030
82.763667, 72.394, -18.9756
83.129878, 72.328, -4.8407
83.496089, 72.271, 9.2974
83.862300, 72.222, 23.4342
84.228510, 72.183, 37.5658
84.594721, 72.152, 51.6881
84.960932, 72.130, 65.7971
85.327143, 72.115, 79.8894
85.693354, 72.109, 93.9613
86.059565, 72.110, 108.0099
86.425776, 72.117, 122.0323
86.791987, 72.131, 136.0259
87.158198, 72.151, 149.9885
87.524409, 72.176, 163.9182
87.890619, 72.205, 177.8136
88.256830, 72.239, -168.3270
88.623041, 72.276, -154.5043
88.989252, 72.315, -140.7190
89.355463, 72.357, -126.9724
89.721674, 72.400, -113.2643
90.087885, 72.445, -99.5951
90.454096, 72.490, -85.9653
90.820307, 72.536, -72.3746
91.186518, 72.581, -58.8230
91.552729, 72.625, -45.3104
91.918939, 72.668, -31.8361
92.285150, 72.710, -18.3994
92.651361, 72.749, -5.0000
93.017572, 72.787, 8.3638
93.383783, 72.821, 21.6932
93.749994, 72.852, 34.9896
94.116205, 72.881, 48.2552
94.482416, 72.905, 61.4922
94.848627, 72.926, 74.7025
95.214838, 72.942, 87.8896
95.581049, 72.954, 101.0559
95.947259, 72.962, 114.2046
96.313470, 72.965, 127.3389
96.679681, 72.964, 140.4619
97.045892, 72.958, 153.5773
97.412103, 72.947, 166.6881
97.778314, 72.932, 179.7982
98.144525, 72.911, -167.0895
98.510736, 72.887, -153.9718
98.876947, 72.857, -140.8451
99.243158, 72.823, -127.7070
99.609369, 72.785, -114.5546
99.975579, 72.742, -101.3846
100.341790, 72.695, -88.1956
100.708001, 72.644, -74.9847
101.074212, 72.589, -61.7500
101.440423, 72.531, -48.4899
101.806634, 72.468, -35.2030
102.172845, 72.402, -21.8877
102.539056, 72.333, -8.5433
102.905267, 72.261, 4.8307
103.271478, 72.186, 18.2352
103.637689, 72.108, 31.6700
104.003899, 72.027, 45.1353
104.370110, 71.944, 58.6301
104.736321, 71.858, 72.1541
105.102532, 71.771, 85.7061
105.468743, 71.682, 99.2849
105.834954, 71.591, 112.8887
106.201165, 71.498, 126.5161
106.567376, 71.404, 140.1650
106.933587, 71.309, 153.8330
107.299798, 71.214, 167.5178
107.666009, 71.117, -178.7825
108.032219, 71.020, -165.0708
108.398430, 70.923, -151.3491
108.764641, 70.825, -137.6199
109.130852, 70.727, -123.8853
109.497063, 70.629, -110.1479
109.863274, 70.532, -96.4092
110.229485, 70.434, -82.6711
110.595696, 70.336, -68.9353
110.961907, 70.239, -55.2031
111.328118, 70.142, -41.4758
111.694328, 70.046, -27.7544
112.060539, 69.950, -14.0400
112.426750, 69.854, -0.3328
112.792961, 69.759, 13.3662
113.159172, 69.664, 27.0569
113.525383, 69.569, 40.7390
113.891594, 69.475, 54.4126
114.257805, 69.381, 68.0771
114.624016, 69.288, 81.7332
114.990227, 69.195, 95.3809
115.356438, 69.102, 109.0200
115.722648, 69.010, 122.6511
116.088859, 68.918, 136.2744
116.455070, 68.827, 149.8901
116.821281, 68.735, 163.4985
117.187492, 68.644, 177.1003
117.553703, 68.554, -169.3047
117.919914, 68.464, -155.7161
118.286125, 68.374, -142.1333
118.652336, 68.284, -128.5564
119.018547, 68.195, -114.9851
119.384758, 68.106, -101.4189
119.750968, 68.017, -87.8582
120.117179, 67.929, -74.3020
120.483390, 67.841, -60.7510
120.849601, 67.753, -47.2043
121.215812, 67.665, -33.6626
121.582023, 67.578, -20.1250
121.948234, 67.491, -6.5918
122.314445, 67.405, 6.9373
122.680656, 67.318, 20.4624
123.046867, 67.232, 33.9834
123.413078, 67.146, 47.5007
123.779288, 67.061, 61.0146
124.145499, 66.975, 74.5249
124.511710, 66.890, 88.0322
124.877921, 66.805, 101.5364
125.244132, 66.720, 115.0381
125.610343, 66.634, 128.5374
125.976554, 66.549, 142.0347
126.342765, 66.464, 155.5303
126.708976, 66.379, 169.0244
127.075187, 66.294, -177.4824
127.441398, 66.208, -163.9895
127.807608, 66.123, -150.4971
128.173819, 66.037, -137.0042
128.540030, 65.951, -123.5105
128.906241, 65.864, -110.0151
129.272452, 65.777, -96.5183
129.638663, 65.690, -83.0188
130.004874, 65.602, -69.5166
130.371085, 65.513, -56.0110
130.737296, 65.424, -42.5012
131.103507, 65.335, -28.9871
131.469718, 65.244, -15.4678
131.835928, 65.153, -1.9426
132.202139, 65.061, 11.5886
132.568350, 64.968, 25.1270
132.934561, 64.875, 38.6724
133.300772, 64.780, 52.2261
133.666983, 64.685, 65.7878
134.033194, 64.588, 79.3589
134.399405, 64.490, 92.9397
134.765616, 64.392, 106.5298
135.131827, 64.292, 120.1306
135.498037, 64.191, 133.7427
135.864248, 64.089, 147.3652
136.230459, 63.986, 160.9995
136.596670, 63.881, 174.6458
136.962881, 63.776, -171.6965
137.329092, 63.669, -158.0264
137.695303, 63.561, -144.3438
138.061514, 63.452, -130.6487
138.427725, 63.341, -116.9417
138.793936, 63.229, -103.2219
139.160147, 63.117, -89.4897
139.526357, 63.003, -75.7458
139.892568, 62.887, -61.9897
140.258779, 62.771, -48.2217
140.624990, 62.654, -34.4424
140.991201, 62.535, -20.6516
141.357412, 62.416, -6.8496
141.723623, 62.295, 6.9626
142.089834, 62.173, 20.7854
142.456045, 62.051, 34.6184
142.822256, 61.927, 48.4607
143.188467, 61.803, 62.3125
143.554677, 61.677, 76.1733
143.920888, 61.551, 90.0427
144.287099, 61.424, 103.9204
144.653310, 61.296, 117.8064
145.019521, 61.167, 131.6995
145.385732, 61.037, 145.6001
145.751943, 60.907, 159.5081
146.118154, 60.776, 173.4224
146.484365, 60.644, -172.6570
146.850576, 60.511, -158.7297
147.216787, 60.378, -144.7971
147.582997, 60.244, -130.8586
147.949208, 60.109, -116.9148
148.315419, 59.973, -102.9663
148.681630, 59.838, -89.0129
149.047841, 59.701, -75.0552
149.414052, 59.564, -61.0935
149.780263, 59.426, -47.1279
150.146474, 59.288, -33.1589
150.512685, 59.149, -19.1870
150.878896, 59.010, -5.2122
151.245107, 58.870, 8.7651
151.611317, 58.730, 22.7446
151.977528, 58.590, 36.7256
152.343739, 58.449, 50.7083
152.709950, 58.308, 64.6919
153.076161, 58.166, 78.6765
153.442372, 58.024, 92.6609
153.808583, 57.882, 106.6458
154.174794, 57.739, 120.6306
154.541005, 57.596, 134.6143
154.907216, 57.453, 148.5972
155.273427, 57.310, 162.5791
155.639637, 57.166, 176.5588
156.005848, 57.022, -169.4626
156.372059, 56.878, -155.4866
156.738270, 56.734, -141.5127
157.104481, 56.590, -127.5415
157.470692, 56.445, -113.5732
157.836903, 56.301, -99.6082
158.203114, 56.156, -85.6465
158.569325, 56.011, -71.6882
158.935536, 55.866, -57.7339
159.301746, 55.721, -43.7832
159.667957, 55.576, -29.8374
160.034168, 55.430, -15.8955
160.400379, 55.285, -1.9585
160.766590, 55.139, 11.9736
161.132801, 54.994, 25.9014
161.499012, 54.848, 39.8237
161.865223, 54.702, 53.7407
162.231434, 54.557, 67.6523
162.597645, 54.411, 81.5576
162.963856, 54.265, 95.4575
163.330066, 54.118, 109.3516
163.696277, 53.972, 123.2383
164.062488, 53.826, 137.1196
164.428699, 53.680, 150.9932
164.794910, 53.533, 164.8604
165.161121, 53.387, 178.7197
165.527332, 53.240, -167.4287
165.893543, 53.093, -153.5850
166.259754, 52.946, -139.7490
166.625965, 52.799, -125.9224
166.992176, 52.652, -112.1045
167.358386, 52.505, -98.2954
167.724597, 52.357, -84.4966
168.090808, 52.210, -70.7080
168.457019, 52.062, -56.9302
168.823230, 51.914, -43.1636
169.189441, 51.766, -29.4082
169.555652, 51.618, -15.6655
169.921863, 51.470, -1.9355
170.288074, 51.321, 11.7812
170.654285, 51.172, 25.4834
171.020496, 51.024, 39.1714
171.386706, 50.875, 52.8433
171.752917, 50.725, 66.4995
172.119128, 50.576, 80.1382
172.485339, 50.426, 93.7593
172.851550, 50.277, 107.3618
173.217761, 50.127, 120.9453
173.583972, 49.977, 134.5078
173.950183, 49.826, 148.0493
174.316394, 49.676, 161.5684
174.682605, 49.525, 175.0645
175.048816, 49.374, -171.4639
175.415026, 49.223, -158.0176
175.781237, 49.072, -144.5972
176.147448, 48.921, -131.2041
176.513659, 48.769, -117.8394
176.879870, 48.617, -104.5039
177.246081, 48.465, -91.1992
177.612292, 48.313, -77.9258
177.978503, 48.161, -64.6855
178.344714, 48.009, -51.4790
178.710925, 47.856, -38.3071
179.077136, 47.704, -25.1714
179.443346, 47.551, -12.0723
179.809557, 47.398, 0.9883
180.175768, 47.245, 14.0098
180.541979, 47.092, 26.9907
180.908190, 46.939, 39.9307
181.274401, 46.786, 52.8281
181.640612, 46.633, 65.6826
182.006823, 46.479, 78.4922
182.373034, 46.326, 91.2573
182.739245, 46.172, 103.9761
183.105455, 46.019, 116.6475
183.471666, 45.865, 129.2715
183.837877, 45.712, 141.8472
184.204088, 45.558, 154.3730
184.570299, 45.405, 166.8491
184.936510, 45.251, 179.2744
185.302721, 45.098, -168.3516
185.668932, 44.944, -156.0293
186.035143, 44.791, -143.7593
186.401354, 44.638, -131.5420
186.767565, 44.484, -119.3784
187.133775, 44.331, -107.2681
187.499986, 44.178, -95.2114
187.866197, 44.025, -83.2090
188.232408, 43.873, -71.2607
188.598619, 43.720, -59.3667
188.964830, 43.567, -47.5273
189.331041, 43.415, -35.7417
189.697252, 43.263, -24.0103
190.063463, 43.111, -12.3330
190.429674, 42.959, -0.7095
190.795885, 42.808, 10.8604
191.162095, 42.657, 22.3774
191.528306, 42.506, 33.8418
191.894517, 42.355, 45.2544
192.260728, 42.205, 56.6147
192.626939, 42.054, 67.9248
192.993150, 41.905, 79.1841
193.359361, 41.756, 90.3940
193.725572, 41.607, 101.5557
194.091783, 41.458, 112.6694
194.457994, 41.310, 123.7363
194.824205, 41.163, 134.7573
195.190415, 41.015, 145.7339
195.556626, 40.869, 156.6665
195.922837, 40.723, 167.5566
196.289048, 40.578, 178.4058
196.655259, 40.433, -170.7852
197.021470, 40.289, -160.0146
197.387681, 40.145, -149.2812
197.753892, 40.003, -138.5840
198.120103, 39.861, -127.9214
198.486314, 39.720, -117.2915
198.852525, 39.579, -106.6934
199.218735, 39.440, -96.1250
199.584946, 39.302, -85.5854
199.951157, 39.164, -75.0728
200.317368, 39.028, -64.5850
200.683579, 38.893, -54.1216
201.049790, 38.758, -43.6802
201.416001, 38.625, -33.2593
201.782212, 38.494, -22.8574
202.148423, 38.363, -12.4731
202.514634, 38.234, -2.1045
202.880845, 38.106, 8.2495
203.247055, 37.980, 18.5913
203.613266, 37.856, 28.9219
203.979477, 37.732, 39.2432
204.345688, 37.611, 49.5562
204.711899, 37.491, 59.8623
205.078110, 37.373, 70.1641
205.444321, 37.257, 80.4619
205.810532, 37.143, 90.7578
206.176743, 37.031, 101.0527
206.542954, 36.920, 111.3486
206.909164, 36.812, 121.6465
207.275375, 36.706, 131.9478
207.641586, 36.603, 142.2534
208.007797, 36.501, 152.5654
208.374008, 36.402, 162.8843
208.740219, 36.306, 173.2119
209.106430, 36.211, -176.4512
209.472641, 36.120, -166.1040
209.838852, 36.031, -155.7446
210.205063, 35.945, -145.3726
210.571274, 35.861, -134.9868
210.937484, 35.781, -124.5859
211.303695, 35.703, -114.1694
211.669906, 35.628, -103.7368
212.036117, 35.556, -93.2861
212.402328, 35.487, -82.8174
212.768539, 35.421, -72.3296
213.134750, 35.358, -61.8223
213.500961, 35.298, -51.2939
213.867172, 35.242, -40.7446
214.233383, 35.188, -30.1733
214.599594, 35.138, -19.5796
214.965804, 35.090, -8.9629
215.332015, 35.046, 1.6772
215.698226, 35.005, 12.3413
216.064437, 34.968, 23.0298
216.430648, 34.933, 33.7432
216.796859, 34.902, 44.4814
217.163070, 34.873, 55.2451
217.529281, 34.848, 66.0347
217.895492, 34.826, 76.8501
218.261703, 34.807, 87.6919
218.627914, 34.790, 98.5596
218.994124, 34.777, 109.4541
219.360335, 34.767, 120.3750
219.726546, 34.759, 131.3228
220.092757, 34.754, 142.2969
220.458968, 34.752, 153.2979
220.825179, 34.752, 164.3257
221.191390, 34.755, 175.3799
221.557601, 34.760, -173.5396
221.923812, 34.767, -162.4321
222.290023, 34.777, -151.2988
222.656234, 34.789, -140.1396
223.022444, 34.803, -128.9546
223.388655, 34.819, -117.7437
223.754866, 34.837, -106.5073
224.121077, 34.857, -95.2456
224.487288, 34.878, -83.9595
224.853499, 34.901, -72.6484
225.219710, 34.925, -61.3130
225.585921, 34.951, -49.9541
225.952132, 34.978, -38.5713
226.318343, 35.007, -27.1655
226.684554, 35.036, -15.7368
227.050764, 35.066, -4.2856
227.416975, 35.098, 7.1875
227.783186, 35.130, 18.6821
228.149397, 35.163, 30.1982
228.515608, 35.197, 41.7349
228.881819, 35.231, 53.2920
229.248030, 35.266, 64.8687
229.614241, 35.301, 76.4644
229.980452, 35.336, 88.0796
230.346663, 35.372, 99.7129
230.712873, 35.408, 111.3643
231.079084, 35.444, 123.0327
231.445295, 35.480, 134.7183
231.811506, 35.516, 146.4204
232.177717, 35.551, 158.1387
232.543928, 35.587, 169.8721
232.910139, 35.623, -178.3799
233.276350, 35.658, -166.6167
233.642561, 35.693, -154.8398
234.008772, 35.727, -143.0498
234.374983, 35.761, -131.2461
234.741193, 35.794, -119.4302
235.107404, 35.827, -107.6025
235.473615, 35.859, -95.7627
235.839826, 35.891, -83.9121
236.206037, 35.922, -72.0513
236.572248, 35.952, -60.1797
236.938459, 35.981, -48.2983
237.304670, 36.010, -36.4082
237.670881, 36.038, -24.5088
238.037092, 36.064, -12.6011
238.403303, 36.090, -0.6851
238.769513, 36.115, 11.2383
239.135724, 36.139, 23.1689
239.501935, 36.162, 35.1064
239.868146, 36.184, 47.0503
240.234357, 36.204, 59.0000
240.600568, 36.224, 70.9561
240.966779, 36.243, 82.9170
241.332990, 36.260, 94.8833
241.699201, 36.276, 106.8540
242.065412, 36.291, 118.8296
242.431623, 36.305, 130.8086
242.797833, 36.318, 142.7920
243.164044, 36.329, 154.7783
243.530255, 36.340, 166.7681
243.896466, 36.349, 178.7607
244.262677, 36.356, -169.2437
244.628888, 36.363, -157.2456
244.995099, 36.368, -145.2461
245.361310, 36.372, -133.2441
245.727521, 36.375, -121.2402
246.093732, 36.376, -109.2354
246.459943, 36.376, -97.2290
246.826153, 36.375, -85.2217
247.192364, 36.373, -73.2134
247.558575, 36.369, -61.2046
247.924786, 36.364, -49.1953
248.290997, 36.358, -37.1855
248.657208, 36.350, -25.1758
249.023419, 36.342, -13.1660
249.389630, 36.332, -1.1562
249.755841, 36.320, 10.8530
250.122052, 36.308, 22.8613
250.488263, 36.294, 34.8696
250.854473, 36.279, 46.8770
251.220684, 36.262, 58.8838
251.586895, 36.245, 70.8892
251.953106, 36.226, 82.8940
252.319317, 36.206, 94.8975
252.685528, 36.185, 106.8994
253.051739, 36.163, 118.8999
253.417950, 36.139, 130.8989
253.784161, 36.115, 142.8970
254.150372, 36.089, 154.8926
254.516582, 36.062, 166.8872
254.882793, 36.034, 178.8799
255.249004, 36.004, -169.1294
255.615215, 35.974, -157.1406
255.981426, 35.943, -145.1538
256.347637, 35.910, -133.1694
256.713848, 35.876, -121.1865
257.080059, 35.842, -109.2051
257.446270, 35.806, -97.2266
257.812481, 35.769, -85.2495
258.178692, 35.732, -73.2744
258.544902, 35.693, -61.3022
258.911113, 35.653, -49.3320
259.277324, 35.612, -37.3628
259.643535, 35.571, -25.3970
260.009746, 35.528, -13.4331
260.375957, 35.484, -1.4707
260.742168, 35.440, 10.4893
261.108379, 35.394, 22.4473
261.474590, 35.348, 34.4033
261.840801, 35.301, 46.3574
262.207012, 35.253, 58.3096
262.573222, 35.204, 70.2598
262.939433, 35.154, 82.2080
263.305644, 35.104, 94.1543
263.671855, 35.052, 106.0996
264.038066, 35.000, 118.0425
264.404277, 34.947, 129.9849
264.770488, 34.893, 141.9243
265.136699, 34.839, 153.8628
265.502910, 34.783, 165.8003
265.869121, 34.727, 177.7358
266.235332, 34.671, -170.3296
266.601542, 34.613, -158.3960
266.967753, 34.555, -146.4639
267.333964, 34.496, -134.5322
267.700175, 34.437, -122.6016
268.066386, 34.377, -110.6719
268.432597, 34.316, -98.7432
268.798808, 34.255, -86.8145
269.165019, 34.193, -74.8867
269.531230, 34.130, -62.9595
269.897441, 34.067, -51.0322
270.263652, 34.003, -39.1055
270.629862, 33.939, -27.1782
270.996073, 33.874, -15.2515
271.362284, 33.809, -3.3247
271.728495, 33.743, 8.6021
272.094706, 33.677, 20.5298
272.460917, 33.610, 32.4570
272.827128, 33.543, 44.3853
273.193339, 33.475, 56.3140
273.559550, 33.407, 68.2437
273.925761, 33.338, 80.1738
274.291972, 33.269, 92.1045
274.658182, 33.200, 104.0366
275.024393, 33.130, 115.9692
275.390604, 33.060, 127.9033
275.756815, 32.989, 139.8384
