Freq(Hz), SPL(dB), Phase(degrees)
20.141602, 75.130, -2.3102
20.507812, 75.084, -2.2938
20.874023, 75.761, -2.5513
21.240234, 76.629, -2.8962
21.606445, 77.607, -3.2826
21.972656, 78.640, -3.6695
22.338867, 79.697, -4.0274
22.705078, 80.760, -4.3370
23.071289, 81.821, -4.5844
23.437500, 82.877, -4.7567
23.803711, 83.925, -4.8420
24.169922, 84.964, -4.8331
24.536132, 85.994, -4.7323
24.902343, 87.010, -4.5538
25.268554, 88.010, -4.3214
25.634765, 88.990, -4.0661
26.000976, 89.946, -3.8243
26.367187, 90.874, -3.6392
26.733398, 91.768, -3.5621
27.099609, 92.624, -3.6517
27.465820, 93.436, -3.9708
27.832031, 94.200, -4.5806
28.198242, 94.911, -5.5348
28.564452, 95.563, -6.8746
28.930663, 96.152, -8.6243
29.296874, 96.672, -10.7853
29.663085, 97.121, -13.3302
30.029296, 97.494, -16.1988
30.395507, 97.791, -19.2980
30.761718, 98.010, -22.5083
31.127929, 98.155, -25.6967
31.494140, 98.231, -28.7323
31.860351, 98.243, -31.5035
32.226562, 98.200, -33.9307
32.592772, 98.111, -35.9735
32.958983, 97.984, -37.6294
33.325194, 97.827, -38.9243
33.691405, 97.646, -39.8987
34.057616, 97.443, -40.5917
34.423827, 97.222, -41.0309
34.790038, 96.982, -41.2275
35.156249, 96.724, -41.1773
35.522460, 96.449, -40.8667
35.888671, 96.158, -40.2784
36.254882, 95.853, -39.3984
36.621092, 95.538, -38.2196
36.987303, 95.218, -36.7445
37.353514, 94.897, -34.9858
37.719725, 94.582, -32.9653
38.085936, 94.279, -30.7128
38.452147, 93.994, -28.2643
38.818358, 93.735, -25.6598
39.184569, 93.507, -22.9421
39.550780, 93.314, -20.1549
39.916991, 93.160, -17.3414
40.283201, 93.046, -14.5435
40.649412, 92.971, -11.8000
41.015623, 92.934, -9.1465
41.381834, 92.928, -6.6135
41.748045, 92.949, -4.2263
42.114256, 92.991, -2.0038
42.480467, 93.046, 0.0424
42.846678, 93.106, 1.9085
43.212889, 93.166, 3.5985
43.579100, 93.218, 5.1250
43.945311, 93.258, 6.5083
44.311521, 93.279, 7.7764
44.677732, 93.278, 8.9629
45.043943, 93.251, 10.1063
45.410154, 93.197, 11.2470
45.776365, 93.114, 12.4256
46.142576, 93.001, 13.6798
46.508787, 92.859, 15.0426
46.874998, 92.689, 16.5399
47.241209, 92.492, 18.1894
47.607420, 92.271, 19.9995
47.973631, 92.029, 21.9696
48.339841, 91.767, 24.0900
48.706052, 91.489, 26.3438
49.072263, 91.198, 28.7076
49.438474, 90.897, 31.1535
49.804685, 90.589, 33.6511
50.170896, 90.277, 36.1688
50.537107, 89.964, 38.6759
50.903318, 89.651, 41.1432
51.269529, 89.343, 43.5444
51.635740, 89.040, 45.8563
52.001951, 88.745, 48.0587
52.368161, 88.461, 50.1341
52.734372, 88.188, 52.0674
53.100583, 87.929, 53.8455
53.466794, 87.685, 55.4565
53.833005, 87.458, 56.8897
54.199216, 87.247, 58.1353
54.565427, 87.054, 59.1847
54.931638, 86.880, 60.0301
55.297849, 86.724, 60.6651
55.664060, 86.586, 61.0850
56.030271, 86.464, 61.2871
56.396481, 86.358, 61.2708
56.762692, 86.266, 61.0383
57.128903, 86.187, 60.5943
57.495114, 86.117, 59.9466
57.861325, 86.056, 59.1057
58.227536, 86.001, 58.0852
58.593747, 85.951, 56.9008
58.959958, 85.902, 55.5709
59.326169, 85.854, 54.1154
59.692380, 85.806, 52.5558
60.058591, 85.755, 50.9139
60.424801, 85.701, 49.2122
60.791012, 85.644, 47.4721
61.157223, 85.583, 45.7143
61.523434, 85.519, 43.9576
61.889645, 85.451, 42.2185
62.255856, 85.380, 40.5111
62.622067, 85.307, 38.8461
62.988278, 85.231, 37.2316
63.354489, 85.155, 35.6722
63.720700, 85.078, 34.1699
64.086910, 85.002, 32.7239
64.453121, 84.926, 31.3313
64.819332, 84.851, 29.9878
65.185543, 84.777, 28.6878
65.551754, 84.704, 27.4252
65.917965, 84.632, 26.1940
66.284176, 84.560, 24.9883
66.650387, 84.488, 23.8032
67.016598, 84.415, 22.6346
67.382809, 84.340, 21.4792
67.749020, 84.263, 20.3350
68.115230, 84.182, 19.2008
68.481441, 84.096, 18.0764
68.847652, 84.006, 16.9622
69.213863, 83.909, 15.8593
69.580074, 83.806, 14.7689
69.946285, 83.696, 13.6928
70.312496, 83.579, 12.6325
70.678707, 83.455, 11.5897
71.044918, 83.322, 10.5657
71.411129, 83.182, 9.5617
71.777340, 83.034, 8.5786
72.143550, 82.878, 7.6170
72.509761, 82.715, 6.6772
72.875972, 82.545, 5.7593
73.242183, 82.367, 4.8632
73.608394, 82.183, 3.9886
73.974605, 81.992, 3.1353
74.340816, 81.795, 2.3030
74.707027, 81.593, 1.4914
75.073238, 81.385, 0.7007
75.439449, 81.173, -0.0691
75.805660, 80.957, -0.8173
76.171870, 80.738, -1.5431
76.538081, 80.515, -2.2452
76.904292, 80.290, -2.9220
77.270503, 80.063, -3.5714
77.636714, 79.836, -4.1909
78.002925, 79.607, -4.7776
78.369136, 79.379, -5.3284
78.735347, 79.152, -5.8397
79.101558, 78.927, -6.3078
79.467769, 78.704, -6.7289
79.833980, 78.484, -7.0990
80.200190, 78.269, -7.4142
80.566401, 78.057, -7.6707
80.932612, 77.852, -7.8649
81.298823, 77.652, -7.9935
81.665034, 77.460, -8.0533
82.031245, 77.274, -8.0419
82.397456, 77.097, -7.9570
82.763667, 76.928, -7.7967
83.129878, 76.767, -7.5599
83.496089, 76.615, -7.2453
83.862300, 76.472, -6.8525
84.228510, 76.338, -6.3811
84.594721, 76.213, -5.8308
84.960932, 76.096, -5.2018
85.327143, 75.987, -4.4941
85.693354, 75.886, -3.7076
86.059565, 75.791, -2.8424
86.425776, 75.703, -1.8982
86.791987, 75.620, -0.8747
87.158198, 75.542, 0.2285
87.524409, 75.468, 1.4121
87.890619, 75.397, 2.6770
88.256830, 75.329, 4.0242
88.623041, 75.262, 5.4548
88.989252, 75.197, 6.9699
89.355463, 75.132, 8.5707
89.721674, 75.067, 10.2586
90.087885, 75.001, 12.0348
90.454096, 74.934, 13.9005
90.820307, 74.865, 15.8568
91.186518, 74.795, 17.9047
91.552729, 74.722, 20.0453
91.918939, 74.647, 22.2794
92.285150, 74.569, 24.6076
92.651361, 74.488, 27.0306
93.017572, 74.404, 29.5486
93.383783, 74.317, 32.1620
93.749994, 74.226, 34.8708
94.116205, 74.131, 37.6747
94.482416, 74.033, 40.5734
94.848627, 73.932, 43.5662
95.214838, 73.826, 46.6521
95.581049, 73.717, 49.8299
95.947259, 73.605, 53.0979
96.313470, 73.489, 56.4543
96.679681, 73.370, 59.8965
97.045892, 73.247, 63.4219
97.412103, 73.121, 67.0272
97.778314, 72.992, 70.7087
98.144525, 72.860, 74.4622
98.510736, 72.726, 78.2831
98.876947, 72.589, 82.1660
99.243158, 72.450, 86.1055
99.609369, 72.309, 90.0953
99.975579, 72.167, 94.1289
100.341790, 72.023, 98.1994
100.708001, 71.878, 102.2992
101.074212, 71.731, 106.4209
101.440423, 71.585, 110.5566
101.806634, 71.438, 114.6981
102.172845, 71.291, 118.8375
102.539056, 71.144, 122.9665
102.905267, 70.997, 127.0771
103.271478, 70.851, 131.1615
103.637689, 70.706, 135.2120
104.003899, 70.562, 139.2213
104.370110, 70.419, 143.1823
104.736321, 70.277, 147.0884
105.102532, 70.136, 150.9334
105.468743, 69.996, 154.7115
105.834954, 69.858, 158.4174
106.201165, 69.722, 162.0463
106.567376, 69.586, 165.5939
106.933587, 69.452, 169.0562
107.299798, 69.319, 172.4298
107.666009, 69.187, 175.7117
108.032219, 69.056, 178.8993
108.398430, 68.925, -178.0095
108.764641, 68.795, -175.0164
109.130852, 68.666, -172.1229
109.497063, 68.536, -169.3299
109.863274, 68.407, -166.6382
110.229485, 68.277, -164.0482
110.595696, 68.146, -161.5600
110.961907, 68.015, -159.1734
111.328118, 67.884, -156.8881
111.694328, 67.751, -154.7034
112.060539, 67.617, -152.6183
112.426750, 67.482, -150.6320
112.792961, 67.345, -148.7430
113.159172, 67.207, -146.9498
113.525383, 67.067, -145.2508
113.891594, 66.925, -143.6441
114.257805, 66.781, -142.1275
114.624016, 66.636, -140.6987
114.990227, 66.489, -139.3550
115.356438, 66.339, -138.0938
115.722648, 66.188, -136.9119
116.088859, 66.035, -135.8058
116.455070, 65.880, -134.7720
116.821281, 65.723, -133.8066
117.187492, 65.564, -132.9053
117.553703, 65.403, -132.0636
117.919914, 65.240, -131.2765
118.286125, 65.076, -130.5390
118.652336, 64.910, -129.8456
119.018547, 64.742, -129.1905
119.384758, 64.573, -128.5677
119.750968, 64.403, -127.9709
120.117179, 64.231, -127.3938
120.483390, 64.057, -126.8296
120.849601, 63.883, -126.2714
121.215812, 63.707, -125.7122
121.582023, 63.530, -125.1452
121.948234, 63.353, -124.5631
122.314445, 63.174, -123.9589
122.680656, 62.995, -123.3256
123.046867, 62.815, -122.6562
123.413078, 62.634, -121.9439
123.779288, 62.453, -121.1822
124.145499, 62.271, -120.3645
124.511710, 62.089, -119.4848
124.877921, 61.907, -118.5372
125.244132, 61.724, -117.5160
125.610343, 61.541, -116.4161
125.976554, 61.358, -115.2325
126.342765, 61.174, -113.9606
126.708976, 60.991, -112.5964
127.075187, 60.807, -111.1360
127.441398, 60.624, -109.5759
127.807608, 60.440, -107.9132
128.173819, 60.257, -106.1451
128.540030, 60.073, -104.2695
128.906241, 59.890, -102.2842
129.272452, 59.706, -100.1879
129.638663, 59.523, -97.9792
130.004874, 59.340, -95.6573
130.371085, 59.157, -93.2215
130.737296, 58.974, -90.6717
131.103507, 58.791, -88.0078
131.469718, 58.608, -85.2303
131.835928, 58.425, -82.3396
132.202139, 58.243, -79.3367
132.568350, 58.060, -76.2226
132.934561, 57.878, -72.9986
133.300772, 57.696, -69.6663
133.666983, 57.513, -66.2274
134.033194, 57.331, -62.6838
134.399405, 57.150, -59.0377
134.765616, 56.968, -55.2912
135.131827, 56.786, -51.4469
135.498037, 56.605, -47.5072
135.864248, 56.424, -43.4749
136.230459, 56.242, -39.3527
136.596670, 56.061, -35.1436
136.962881, 55.881, -30.8504
137.329092, 55.700, -26.4762
137.695303, 55.520, -22.0242
138.061514, 55.340, -17.4974
138.427725, 55.161, -12.8990
138.793936, 54.981, -8.2323
139.160147, 54.802, -3.5004
139.526357, 54.624, 1.2936
139.892568, 54.446, 6.1465
140.258779, 54.268, 11.0552
140.624990, 54.091, 16.0167
140.991201, 53.915, 21.0279
141.357412, 53.739, 26.0859
141.723623, 53.563, 31.1877
142.089834, 53.389, 36.3307
142.456045, 53.215, 41.5122
142.822256, 53.042, 46.7294
143.188467, 52.869, 51.9799
143.554677, 52.697, 57.2612
143.920888, 52.526, 62.5711
144.287099, 52.356, 67.9072
144.653310, 52.187, 73.2675
145.019521, 52.019, 78.6497
145.385732, 51.852, 84.0521
145.751943, 51.685, 89.4727
146.118154, 51.520, 94.9095
146.484365, 51.356, 100.3612
146.850576, 51.193, 105.8259
147.216787, 51.030, 111.3020
147.582997, 50.869, 116.7882
147.949208, 50.709, 122.2828
148.315419, 50.551, 127.7847
148.681630, 50.393, 133.2924
149.047841, 50.237, 138.8046
149.414052, 50.081, 144.3203
149.780263, 49.927, 149.8381
150.146474, 49.775, 155.3571
150.512685, 49.623, 160.8761
150.878896, 49.473, 166.3940
151.245107, 49.324, 171.9099
151.611317, 49.176, 177.4228
151.977528, 49.029, -177.0683
152.343739, 48.884, -171.5643
152.709950, 48.740, -166.0661
153.076161, 48.597, -160.5745
153.442372, 48.456, -155.0905
153.808583, 48.316, -149.6147
154.174794, 48.177, -144.1480
154.541005, 48.039, -138.6912
154.907216, 47.903, -133.2451
155.273427, 47.768, -127.8102
155.639637, 47.634, -122.3874
156.005848, 47.501, -116.9772
156.372059, 47.370, -111.5804
156.738270, 47.240, -106.1974
157.104481, 47.111, -100.8289
157.470692, 46.983, -95.4755
157.836903, 46.856, -90.1376
158.203114, 46.731, -84.8157
158.569325, 46.606, -79.5103
158.935536, 46.483, -74.2219
159.301746, 46.360, -68.9508
159.667957, 46.239, -63.6974
160.034168, 46.118, -58.4622
160.400379, 45.999, -53.2453
160.766590, 45.880, -48.0472
161.132801, 45.762, -42.8682
161.499012, 45.645, -37.7085
161.865223, 45.528, -32.5685
162.231434, 45.413, -27.4483
162.597645, 45.297, -22.3482
162.963856, 45.183, -17.2685
163.330066, 45.069, -12.2094
163.696277, 44.956, -7.1711
164.062488, 44.843, -2.1537
164.428699, 44.730, 2.8424
164.794910, 44.618, 7.8170
165.161121, 44.506, 12.7700
165.527332, 44.394, 17.7012
165.893543, 44.283, 22.6103
166.259754, 44.172, 27.4971
166.625965, 44.061, 32.3616
166.992176, 43.951, 37.2032
167.358386, 43.840, 42.0219
167.724597, 43.729, 46.8176
168.090808, 43.619, 51.5897
168.457019, 43.508, 56.3381
168.823230, 43.398, 61.0627
169.189441, 43.287, 65.7632
169.555652, 43.176, 70.4391
169.921863, 43.065, 75.0902
170.288074, 42.954, 79.7164
170.654285, 42.843, 84.3170
171.020496, 42.732, 88.8920
171.386706, 42.620, 93.4411
171.752917, 42.509, 97.9637
172.119128, 42.397, 102.4596
172.485339, 42.284, 106.9285
172.851550, 42.172, 111.3699
173.217761, 42.059, 115.7835
173.583972, 41.946, 120.1690
173.950183, 41.832, 124.5259
174.316394, 41.718, 128.8538
174.682605, 41.604, 133.1526
175.048816, 41.490, 137.4214
175.415026, 41.375, 141.6604
175.781237, 41.260, 145.8688
176.147448, 41.144, 150.0464
176.513659, 41.028, 154.1929
176.879870, 40.912, 158.3077
177.246081, 40.795, 162.3906
177.612292, 40.678, 166.4415
177.978503, 40.560, 170.4597
178.344714, 40.443, 174.4451
178.710925, 40.324, 178.3972
179.077136, 40.206, -177.6840
179.443346, 40.087, -173.7991
179.809557, 39.967, -169.9479
180.175768, 39.848, -166.1311
180.541979, 39.727, -162.3486
180.908190, 39.607, -158.6008
181.274401, 39.486, -154.8877
181.640612, 39.365, -151.2097
182.006823, 39.243, -147.5668
182.373034, 39.121, -143.9590
182.739245, 38.999, -140.3865
183.105455, 38.876, -136.8494
183.471666, 38.753, -133.3477
183.837877, 38.629, -129.8815
184.204088, 38.506, -126.4507
184.570299, 38.382, -123.0553
184.936510, 38.257, -119.6953
185.302721, 38.132, -116.3706
185.668932, 38.007, -113.0812
186.035143, 37.882, -109.8269
186.401354, 37.756, -106.6074
186.767565, 37.630, -103.4231
187.133775, 37.504, -100.2732
187.499986, 37.377, -97.1580
187.866197, 37.251, -94.0771
188.232408, 37.124, -91.0303
188.598619, 36.996, -88.0172
188.964830, 36.869, -85.0378
189.331041, 36.741, -82.0918
189.697252, 36.613, -79.1790
190.063463, 36.484, -76.2988
190.429674, 36.356, -73.4512
190.795885, 36.227, -70.6357
191.162095, 36.098, -67.8522
191.528306, 35.969, -65.1003
191.894517, 35.839, -62.3796
192.260728, 35.710, -59.6899
192.626939, 35.580, -57.0310
192.993150, 35.450, -54.4022
193.359361, 35.320, -51.8036
193.725572, 35.190, -49.2346
194.091783, 35.060, -46.6952
194.457994, 34.929, -44.1848
194.824205, 34.799, -41.7034
195.190415, 34.668, -39.2505
195.556626, 34.537, -36.8260
195.922837, 34.406, -34.4297
196.289048, 34.275, -32.0614
196.655259, 34.144, -29.7209
197.021470, 34.013, -27.4082
197.387681, 33.882, -25.1229
197.753892, 33.750, -22.8652
198.120103, 33.619, -20.6349
198.486314, 33.488, -18.4320
198.852525, 33.356, -16.2566
199.218735, 33.224, -14.1086
199.584946, 33.093, -11.9883
199.951157, 32.961, -9.8958
200.317368, 32.829, -7.8311
200.683579, 32.697, -5.7944
201.049790, 32.566, -3.7863
201.416001, 32.434, -1.8068
201.782212, 32.302, 0.1438
202.148423, 32.170, 2.0651
202.514634, 32.038, 3.9565
202.880845, 31.906, 5.8180
203.247055, 31.774, 7.6488
203.613266, 31.642, 9.4486
203.979477, 31.510, 11.2168
204.345688, 31.378, 12.9530
204.711899, 31.246, 14.6567
205.078110, 31.114, 16.3274
205.444321, 30.983, 17.9645
205.810532, 30.851, 19.5674
206.176743, 30.719, 21.1356
206.542954, 30.587, 22.6687
206.909164, 30.455, 24.1661
207.275375, 30.324, 25.6273
207.641586, 30.192, 27.0518
208.007797, 30.061, 28.4392
208.374008, 29.929, 29.7889
208.740219, 29.798, 31.1008
209.106430, 29.667, 32.3743
209.472641, 29.536, 33.6091
209.838852, 29.405, 34.8049
210.205063, 29.274, 35.9615
210.571274, 29.144, 37.0787
210.937484, 29.013, 38.1564
211.303695, 28.883, 39.1943
211.669906, 28.753, 40.1926
212.036117, 28.623, 41.1511
212.402328, 28.494, 42.0701
212.768539, 28.365, 42.9495
213.134750, 28.236, 43.7894
213.500961, 28.107, 44.5903
213.867172, 27.979, 45.3524
214.233383, 27.851, 46.0760
214.599594, 27.723, 46.7617
214.965804, 27.596, 47.4099
215.332015, 27.469, 48.0211
215.698226, 27.343, 48.5959
216.064437, 27.217, 49.1353
216.430648, 27.092, 49.6396
216.796859, 26.967, 50.1099
217.163070, 26.843, 50.5470
217.529281, 26.719, 50.9518
217.895492, 26.596, 51.3254
218.261703, 26.474, 51.6689
218.627914, 26.352, 51.9833
218.994124, 26.232, 52.2698
219.360335, 26.112, 52.5297
219.726546, 25.993, 52.7643
220.092757, 25.874, 52.9749
220.458968, 25.757, 53.1630
220.825179, 25.641, 53.3298
221.191390, 25.526, 53.4772
221.557601, 25.412, 53.6063
221.923812, 25.299, 53.7191
222.290023, 25.187, 53.8170
222.656234, 25.076, 53.9017
223.022444, 24.967, 53.9750
223.388655, 24.859, 54.0385
223.754866, 24.753, 54.0939
224.121077, 24.648, 54.1432
224.487288, 24.545, 54.1881
224.853499, 24.443, 54.2305
225.219710, 24.343, 54.2721
225.585921, 24.245, 54.3148
225.952132, 24.148, 54.3607
226.318343, 24.054, 54.4114
226.684554, 23.961, 54.4690
227.050764, 23.870, 54.5353
227.416975, 23.782, 54.6121
227.783186, 23.695, 54.7013
228.149397, 23.611, 54.8049
228.515608, 23.528, 54.9247
228.881819, 23.448, 55.0626
229.248030, 23.371, 55.2203
229.614241, 23.296, 55.3998
229.980452, 23.223, 55.6027
230.346663, 23.152, 55.8309
230.712873, 23.084, 56.0861
231.079084, 23.019, 56.3700
231.445295, 22.956, 56.6843
231.811506, 22.896, 57.0306
232.177717, 22.839, 57.4106
232.543928, 22.784, 57.8259
232.910139, 22.732, 58.2780
233.276350, 22.682, 58.7682
233.642561, 22.635, 59.2981
234.008772, 22.591, 59.8690
234.374983, 22.550, 60.4825
234.741193, 22.511, 61.1396
235.107404, 22.475, 61.8418
235.473615, 22.442, 62.5900
235.839826, 22.411, 63.3856
236.206037, 22.383, 64.2295
236.572248, 22.357, 65.1228
236.938459, 22.334, 66.0665
237.304670, 22.314, 67.0615
237.670881, 22.296, 68.1088
238.037092, 22.281, 69.2089
238.403303, 22.268, 70.3625
238.769513, 22.257, 71.5707
239.135724, 22.249, 72.8339
239.501935, 22.243, 74.1525
239.868146, 22.239, 75.5272
240.234357, 22.238, 76.9585
240.600568, 22.238, 78.4467
240.966779, 22.241, 79.9919
241.332990, 22.246, 81.5948
241.699201, 22.252, 83.2556
242.065412, 22.260, 84.9741
242.431623, 22.270, 86.7509
242.797833, 22.282, 88.5856
243.164044, 22.296, 90.4785
243.530255, 22.311, 92.4296
243.896466, 22.327, 94.4387
244.262677, 22.345, 96.5059
244.628888, 22.364, 98.6306
244.995099, 22.385, 100.8131
245.361310, 22.407, 103.0527
245.727521, 22.430, 105.3496
246.093732, 22.454, 107.7030
246.459943, 22.479, 110.1129
246.826153, 22.505, 112.5786
247.192364, 22.533, 115.1000
247.558575, 22.560, 117.6763
247.924786, 22.589, 120.3073
248.290997, 22.619, 122.9922
248.657208, 22.649, 125.7306
249.023419, 22.680, 128.5220
249.389630, 22.711, 131.3657
249.755841, 22.743, 134.2611
250.122052, 22.775, 137.2075
250.488263, 22.808, 140.2043
250.854473, 22.841, 143.2510
251.220684, 22.874, 146.3466
251.586895, 22.908, 149.4905
251.953106, 22.942, 152.6820
252.319317, 22.976, 155.9204
252.685528, 23.010, 159.2051
253.051739, 23.044, 162.5350
253.417950, 23.079, 165.9097
253.784161, 23.113, 169.3281
254.150372, 23.147, 172.7898
254.516582, 23.181, 176.2938
254.882793, 23.215, 179.8395
255.249004, 23.249, -176.5741
255.615215, 23.283, -172.9475
255.981426, 23.317, -169.2817
256.347637, 23.350, -165.5774
256.713848, 23.383, -161.8352
257.080059, 23.416, -158.0559
257.446270, 23.448, -154.2404
257.812481, 23.480, -150.3893
258.178692, 23.512, -146.5033
258.544902, 23.543, -142.5833
258.911113, 23.574, -138.6298
259.277324, 23.604, -134.6436
259.643535, 23.634, -130.6255
260.009746, 23.663, -126.5760
260.375957, 23.692, -122.4960
260.742168, 23.720, -118.3860
261.108379, 23.748, -114.2467
261.474590, 23.775, -110.0787
261.840801, 23.802, -105.8827
262.207012, 23.828, -101.6594
262.573222, 23.853, -97.4093
262.939433, 23.878, -93.1331
263.305644, 23.902, -88.8312
263.671855, 23.925, -84.5043
264.038066, 23.948, -80.1530
264.404277, 23.970, -75.7778
264.770488, 23.992, -71.3794
265.136699, 24.012, -66.9581
265.502910, 24.033, -62.5146
265.869121, 24.052, -58.0493
266.235332, 24.070, -53.5629
266.601542, 24.088, -49.0557
266.967753, 24.106, -44.5281
267.333964, 24.122, -39.9808
267.700175, 24.138, -35.4142
268.066386, 24.153, -30.8286
268.432597, 24.167, -26.2247
268.798808, 24.180, -21.6028
269.165019, 24.193, -16.9634
269.531230, 24.205, -12.3068
269.897441, 24.217, -7.6334
270.263652, 24.227, -2.9438
270.629862, 24.237, 1.7617
270.996073, 24.246, 6.4828
271.362284, 24.255, 11.2190
271.728495, 24.262, 15.9700
272.094706, 24.269, 20.7354
272.460917, 24.276, 25.5146
272.827128, 24.281, 30.3076
273.193339, 24.286, 35.1139
273.559550, 24.290, 39.9332
273.925761, 24.294, 44.7650
274.291972, 24.296, 49.6090
274.658182, 24.298, 54.4652
275.024393, 24.300, 59.3328
275.390604, 24.300, 64.2117
275.756815, 24.300, 69.1014
276.123026, 24.300, 74.0018
276.489237, 24.298, 78.9125
276.855448, 24.296, 83.8331
277.221659, 24.294, 88.7635
277.587870, 24.291, 93.7032
277.954081, 24.287, 98.6519
278.320291, 24.282, 103.6095
