Freq(Hz), SPL(dB), Phase(degrees)
20.141602, 75.189, -10.9307
20.507812, 75.142, -10.9142
20.874023, 75.830, -11.1705
21.240234, 76.711, -11.5205
21.606445, 77.704, -11.9237
21.972656, 78.754, -12.3399
22.338867, 79.831, -12.7365
22.705078, 80.916, -13.0916
23.071289, 82.002, -13.3904
23.437500, 83.085, -13.6194
23.803711, 84.162, -13.7640
24.169922, 85.233, -13.8112
24.536132, 86.297, -13.7567
24.902343, 87.349, -13.6091
25.268554, 88.386, -13.3899
25.634765, 89.405, -13.1293
26.000976, 90.400, -12.8630
26.367187, 91.368, -12.6321
26.733398, 92.303, -12.4862
27.099609, 93.200, -12.4852
27.465820, 94.055, -12.6965
27.832031, 94.862, -13.1897
28.198242, 95.616, -14.0294
28.564452, 96.312, -15.2697
28.930663, 96.945, -16.9491
29.296874, 97.510, -19.0852
29.663085, 98.002, -21.6675
30.029296, 98.417, -24.6493
30.395507, 98.753, -27.9438
30.761718, 99.007, -31.4261
31.127929, 99.182, -34.9444
31.494140, 99.279, -38.3362
31.860351, 99.305, -41.4490
32.226562, 99.267, -44.1596
32.592772, 99.173, -46.3887
32.958983, 99.033, -48.1086
33.325194, 98.857, -49.3402
33.691405, 98.654, -50.1410
34.057616, 98.429, -50.5863
34.423827, 98.188, -50.7489
34.790038, 97.933, -50.6845
35.156249, 97.666, -50.4236
35.522460, 97.387, -49.9721
35.888671, 97.096, -49.3177
36.254882, 96.795, -48.4377
36.621092, 96.486, -47.3076
36.987303, 96.173, -45.9078
37.353514, 95.861, -44.2283
37.719725, 95.558, -42.2698
38.085936, 95.270, -40.0445
38.452147, 95.006, -37.5742
38.818358, 94.777, -34.8891
39.184569, 94.590, -32.0256
39.550780, 94.453, -29.0250
39.916991, 94.371, -25.9315
40.283201, 94.347, -22.7911
40.649412, 94.382, -19.6503
41.015623, 94.471, -16.5548
41.381834, 94.609, -13.5485
41.748045, 94.787, -10.6728
42.114256, 94.996, -7.9652
42.480467, 95.226, -5.4585
42.846678, 95.468, -3.1794
43.212889, 95.713, -1.1476
43.579100, 95.952, 0.6252
43.945311, 96.179, 2.1370
44.311521, 96.386, 3.3955
44.677732, 96.569, 4.4188
45.043943, 96.723, 5.2359
45.410154, 96.843, 5.8850
45.776365, 96.927, 6.4135
46.142576, 96.973, 6.8746
46.508787, 96.980, 7.3255
46.874998, 96.946, 7.8231
47.241209, 96.873, 8.4212
47.607420, 96.761, 9.1666
47.973631, 96.613, 10.0965
48.339841, 96.430, 11.2364
48.706052, 96.216, 12.5991
49.072263, 95.973, 14.1843
49.438474, 95.705, 15.9798
49.804685, 95.414, 17.9623
50.170896, 95.104, 20.0997
50.537107, 94.778, 22.3529
50.903318, 94.440, 24.6782
51.269529, 94.093, 27.0294
51.635740, 93.740, 29.3595
52.001951, 93.385, 31.6226
52.368161, 93.031, 33.7747
52.734372, 92.683, 35.7743
53.100583, 92.343, 37.5820
53.466794, 92.016, 39.1606
53.833005, 91.706, 40.4741
54.199216, 91.415, 41.4874
54.565427, 91.148, 42.1656
54.931638, 90.909, 42.4738
55.297849, 90.699, 42.3769
55.664060, 90.520, 41.8400
56.030271, 90.375, 40.8286
56.396481, 90.262, 39.3089
56.762692, 90.182, 37.2490
57.128903, 90.132, 34.6193
57.495114, 90.110, 31.3933
57.861325, 90.112, 27.5490
58.227536, 90.136, 23.0689
58.593747, 90.177, 17.9418
58.959958, 90.231, 12.1628
59.326169, 90.295, 5.7343
59.692380, 90.366, -1.3339
60.058591, 90.441, -9.0241
60.424801, 90.517, -17.3106
60.791012, 90.593, -26.1602
61.157223, 90.668, -35.5324
61.523434, 90.739, -45.3798
61.889645, 90.808, -55.6493
62.255856, 90.873, -66.2828
62.622067, 90.935, -77.2183
62.988278, 90.996, -88.3911
63.354489, 91.054, -99.7355
63.720700, 91.111, -111.1856
64.086910, 91.168, -122.6774
64.453121, 91.224, -134.1492
64.819332, 91.280, -145.5437
65.185543, 91.337, -156.8084
65.551754, 91.393, -167.8964
65.917965, 91.448, -178.7670
66.284176, 91.502, 170.6147
66.650387, 91.553, 160.2773
67.016598, 91.601, 150.2441
67.382809, 91.644, 140.5334
67.749020, 91.681, 131.1584
68.115230, 91.712, 122.1291
68.481441, 91.734, 113.4517
68.847652, 91.747, 105.1296
69.213863, 91.750, 97.1632
69.580074, 91.743, 89.5507
69.946285, 91.724, 82.2882
70.312496, 91.694, 75.3693
70.678707, 91.651, 68.7859
71.044918, 91.597, 62.5276
71.411129, 91.531, 56.5825
71.777340, 91.454, 50.9366
72.143550, 91.365, 45.5747
72.509761, 91.265, 40.4800
72.875972, 91.155, 35.6349
73.242183, 91.035, 31.0211
73.608394, 90.906, 26.6196
73.974605, 90.767, 22.4120
74.340816, 90.620, 18.3799
74.707027, 90.464, 14.5054
75.073238, 90.301, 10.7715
75.439449, 90.130, 7.1620
75.805660, 89.951, 3.6619
76.171870, 89.766, 0.2564
76.538081, 89.574, -3.0679
76.904292, 89.376, -6.3242
77.270503, 89.172, -9.5250
77.636714, 88.962, -12.6821
78.002925, 88.748, -15.8075
78.369136, 88.529, -18.9124
78.735347, 88.305, -22.0082
79.101558, 88.079, -25.1058
79.467769, 87.849, -28.2166
79.833980, 87.616, -31.3512
80.200190, 87.382, -34.5208
80.566401, 87.146, -37.7363
80.932612, 86.909, -41.0090
81.298823, 86.673, -44.3500
81.665034, 86.436, -47.7708
82.031245, 86.201, -51.2831
82.397456, 85.967, -54.8984
82.763667, 85.735, -58.6289
83.129878, 85.507, -62.4865
83.496089, 85.281, -66.4828
83.862300, 85.059, -70.6298
84.228510, 84.842, -74.9387
84.594721, 84.629, -79.4204
84.960932, 84.421, -84.0852
85.327143, 84.218, -88.9424
85.693354, 84.020, -94.0004
86.059565, 83.828, -99.2665
86.425776, 83.641, -104.7468
86.791987, 83.460, -110.4462
87.158198, 83.283, -116.3682
87.524409, 83.113, -122.5149
87.890619, 82.946, -128.8871
88.256830, 82.785, -135.4843
88.623041, 82.628, -142.3043
88.989252, 82.475, -149.3439
89.355463, 82.325, -156.5979
89.721674, 82.179, -164.0603
90.087885, 82.036, -171.7234
90.454096, 81.895, -179.5783
90.820307, 81.757, 172.3853
91.186518, 81.620, 164.1790
91.552729, 81.485, 155.8152
91.918939, 81.351, 147.3075
92.285150, 81.218, 138.6702
92.651361, 81.085, 129.9182
93.017572, 80.953, 121.0667
93.383783, 80.821, 112.1311
93.749994, 80.689, 103.1266
94.116205, 80.557, 94.0684
94.482416, 80.424, 84.9707
94.848627, 80.290, 75.8476
95.214838, 80.156, 66.7120
95.581049, 80.022, 57.5760
95.947259, 79.886, 48.4510
96.313470, 79.750, 39.3472
96.679681, 79.612, 30.2740
97.045892, 79.473, 21.2399
97.412103, 79.333, 12.2523
97.778314, 79.192, 3.3185
98.144525, 79.049, -5.5555
98.510736, 78.905, -14.3641
98.876947, 78.759, -23.1021
99.243158, 78.612, -31.7646
99.609369, 78.463, -40.3477
99.975579, 78.312, -48.8471
100.341790, 78.159, -57.2595
100.708001, 78.005, -65.5815
101.074212, 77.848, -73.8103
101.440423, 77.690, -81.9432
101.806634, 77.530, -89.9780
102.172845, 77.369, -97.9132
102.539056, 77.205, -105.7473
102.905267, 77.040, -113.4796
103.271478, 76.873, -121.1100
103.637689, 76.705, -128.6388
104.003899, 76.535, -136.0671
104.370110, 76.364, -143.3971
104.736321, 76.191, -150.6309
105.102532, 76.017, -157.7719
105.468743, 75.842, -164.8242
105.834954, 75.666, -171.7927
106.201165, 75.488, -178.6829
106.567376, 75.310, 174.4993
106.933587, 75.130, 167.7466
107.299798, 74.950, 161.0520
107.666009, 74.769, 154.4072
108.032219, 74.586, 147.8042
108.398430, 74.404, 141.2341
108.764641, 74.220, 134.6880
109.130852, 74.036, 128.1567
109.497063, 73.851, 121.6309
109.863274, 73.665, 115.1013
110.229485, 73.479, 108.5592
110.595696, 73.293, 101.9955
110.961907, 73.106, 95.4016
111.328118, 72.919, 88.7697
111.694328, 72.731, 82.0918
112.060539, 72.543, 75.3611
112.426750, 72.354, 68.5713
112.792961, 72.165, 61.7164
113.159172, 71.976, 54.7917
113.525383, 71.787, 47.7932
113.891594, 71.597, 40.7174
114.257805, 71.408, 33.5620
114.624016, 71.217, 26.3254
114.990227, 71.027, 19.0070
115.356438, 70.837, 11.6067
115.722648, 70.646, 4.1255
116.088859, 70.455, -3.4347
116.455070, 70.264, -11.0715
116.821281, 70.073, -18.7817
117.187492, 69.882, -26.5616
117.553703, 69.691, -34.4067
117.919914, 69.500, -42.3124
118.286125, 69.309, -50.2732
118.652336, 69.118, -58.2837
119.018547, 68.926, -66.3379
119.384758, 68.735, -74.4301
119.750968, 68.544, -82.5541
120.117179, 68.353, -90.7040
120.483390, 68.161, -98.8738
120.849601, 67.970, -107.0575
121.215812, 67.779, -115.2498
121.582023, 67.588, -123.4449
121.948234, 67.397, -131.6381
122.314445, 67.207, -139.8241
122.680656, 67.016, -147.9985
123.046867, 66.825, -156.1573
123.413078, 66.635, -164.2965
123.779288, 66.444, -172.4124
124.145499, 66.254, 179.4982
124.511710, 66.064, 171.4380
124.877921, 65.874, 163.4099
125.244132, 65.683, 155.4163
125.610343, 65.493, 147.4590
125.976554, 65.303, 139.5402
126.342765, 65.113, 131.6613
126.708976, 64.923, 123.8239
127.075187, 64.733, 116.0291
127.441398, 64.543, 108.2783
127.807608, 64.352, 100.5724
128.173819, 64.162, 92.9124
128.540030, 63.971, 85.2988
128.906241, 63.781, 77.7328
129.272452, 63.590, 70.2150
129.638663, 63.398, 62.7461
130.004874, 63.207, 55.3269
130.371085, 63.015, 47.9581
130.737296, 62.824, 40.6406
131.103507, 62.631, 33.3752
131.469718, 62.439, 26.1627
131.835928, 62.246, 19.0043
132.202139, 62.053, 11.9008
132.568350, 61.859, 4.8534
132.934561, 61.666, -2.1366
133.300772, 61.471, -9.0681
133.666983, 61.277, -15.9396
134.033194, 61.082, -22.7496
134.399405, 60.887, -29.4969
134.765616, 60.691, -36.1793
135.131827, 60.495, -42.7958
135.498037, 60.298, -49.3444
135.864248, 60.102, -55.8230
136.230459, 59.905, -62.2302
136.596670, 59.707, -68.5642
136.962881, 59.509, -74.8229
137.329092, 59.311, -81.0046
137.695303, 59.113, -87.1075
138.061514, 58.914, -93.1296
138.427725, 58.715, -99.0693
138.793936, 58.515, -104.9247
139.160147, 58.316, -110.6942
139.526357, 58.116, -116.3759
139.892568, 57.915, -121.9683
140.258779, 57.715, -127.4700
140.624990, 57.514, -132.8790
140.991201, 57.312, -138.1943
141.357412, 57.111, -143.4148
141.723623, 56.909, -148.5386
142.089834, 56.707, -153.5651
142.456045, 56.505, -158.4932
142.822256, 56.302, -163.3217
143.188467, 56.100, -168.0500
143.554677, 55.897, -172.6780
143.920888, 55.694, -177.2043
144.287099, 55.490, 178.3705
144.653310, 55.287, 174.0469
145.019521, 55.083, 169.8250
145.385732, 54.879, 165.7041
145.751943, 54.675, 161.6840
146.118154, 54.471, 157.7640
146.484365, 54.266, 153.9430
146.850576, 54.062, 150.2201
147.216787, 53.857, 146.5940
147.582997, 53.652, 143.0627
147.949208, 53.447, 139.6249
148.315419, 53.242, 136.2786
148.681630, 53.037, 133.0212
149.047841, 52.832, 129.8508
149.414052, 52.626, 126.7649
149.780263, 52.421, 123.7601
150.146474, 52.215, 120.8344
150.512685, 52.009, 117.9843
150.878896, 51.804, 115.2067
151.245107, 51.598, 112.4984
151.611317, 51.392, 109.8563
151.977528, 51.186, 107.2766
152.343739, 50.981, 104.7562
152.709950, 50.775, 102.2916
153.076161, 50.569, 99.8790
153.442372, 50.364, 97.5151
153.808583, 50.158, 95.1967
154.174794, 49.953, 92.9196
154.541005, 49.748, 90.6809
154.907216, 49.543, 88.4773
155.273427, 49.338, 86.3051
155.639637, 49.133, 84.1616
156.005848, 48.929, 82.0436
156.372059, 48.725, 79.9478
156.738270, 48.521, 77.8718
157.104481, 48.318, 75.8127
157.470692, 48.115, 73.7679
157.836903, 47.912, 71.7352
158.203114, 47.710, 69.7122
158.569325, 47.509, 67.6965
158.935536, 47.307, 65.6865
159.301746, 47.107, 63.6803
159.667957, 46.907, 61.6760
160.034168, 46.708, 59.6721
160.400379, 46.510, 57.6672
160.766590, 46.312, 55.6600
161.132801, 46.115, 53.6492
161.499012, 45.920, 51.6335
161.865223, 45.725, 49.6121
162.231434, 45.531, 47.5839
162.597645, 45.338, 45.5479
162.963856, 45.146, 43.5032
163.330066, 44.955, 41.4490
163.696277, 44.765, 39.3845
164.062488, 44.577, 37.3088
164.428699, 44.390, 35.2211
164.794910, 44.204, 33.1205
165.161121, 44.020, 31.0063
165.527332, 43.837, 28.8776
165.893543, 43.656, 26.7334
166.259754, 43.476, 24.5729
166.625965, 43.297, 22.3953
166.992176, 43.121, 20.1992
167.358386, 42.945, 17.9841
167.724597, 42.772, 15.7488
168.090808, 42.600, 13.4923
168.457019, 42.430, 11.2134
168.823230, 42.261, 8.9111
169.189441, 42.094, 6.5845
169.555652, 41.929, 4.2323
169.921863, 41.766, 1.8534
170.288074, 41.604, -0.5532
170.654285, 41.444, -2.9886
171.020496, 41.286, -5.4540
171.386706, 41.129, -7.9503
171.752917, 40.974, -10.4786
172.119128, 40.821, -13.0400
172.485339, 40.670, -15.6355
172.851550, 40.520, -18.2660
173.217761, 40.371, -20.9324
173.583972, 40.224, -23.6356
173.950183, 40.079, -26.3766
174.316394, 39.935, -29.1560
174.682605, 39.792, -31.9746
175.048816, 39.651, -34.8334
175.415026, 39.511, -37.7327
175.781237, 39.373, -40.6733
176.147448, 39.236, -43.6559
176.513659, 39.100, -46.6808
176.879870, 38.965, -49.7487
177.246081, 38.831, -52.8599
177.612292, 38.699, -56.0148
177.978503, 38.567, -59.2137
178.344714, 38.437, -62.4572
178.710925, 38.308, -65.7450
179.077136, 38.180, -69.0776
179.443346, 38.052, -72.4551
179.809557, 37.926, -75.8774
180.175768, 37.801, -79.3447
180.541979, 37.677, -82.8569
180.908190, 37.553, -86.4143
181.274401, 37.431, -90.0161
181.640612, 37.309, -93.6628
182.006823, 37.188, -97.3540
182.373034, 37.069, -101.0894
182.739245, 36.950, -104.8687
183.105455, 36.832, -108.6919
183.471666, 36.715, -112.5586
183.837877, 36.598, -116.4683
184.204088, 36.483, -120.4209
184.570299, 36.368, -124.4160
184.936510, 36.255, -128.4534
185.302721, 36.142, -132.5322
185.668932, 36.030, -136.6528
186.035143, 35.919, -140.8142
186.401354, 35.809, -145.0164
186.767565, 35.700, -149.2588
187.133775, 35.592, -153.5413
187.499986, 35.484, -157.8633
187.866197, 35.378, -162.2246
188.232408, 35.273, -166.6248
188.598619, 35.168, -171.0635
188.964830, 35.064, -175.5403
189.331041, 34.962, 179.9451
189.697252, 34.860, 175.3931
190.063463, 34.759, 170.8037
190.429674, 34.660, 166.1775
190.795885, 34.561, 161.5151
191.162095, 34.463, 156.8164
191.528306, 34.366, 152.0823
191.894517, 34.270, 147.3130
192.260728, 34.176, 142.5085
192.626939, 34.082, 137.6699
192.993150, 33.989, 132.7974
193.359361, 33.897, 127.8911
193.725572, 33.806, 122.9521
194.091783, 33.716, 117.9810
194.457994, 33.627, 112.9778
194.824205, 33.539, 107.9434
195.190415, 33.452, 102.8784
195.556626, 33.366, 97.7837
195.922837, 33.281, 92.6599
196.289048, 33.197, 87.5076
196.655259, 33.113, 82.3279
197.021470, 33.031, 77.1216
197.387681, 32.950, 71.8894
197.753892, 32.869, 66.6323
198.120103, 32.789, 61.3516
198.486314, 32.710, 56.0479
198.852525, 32.632, 50.7224
199.218735, 32.555, 45.3765
199.584946, 32.479, 40.0110
199.951157, 32.403, 34.6274
200.317368, 32.328, 29.2266
200.683579, 32.254, 23.8101
201.049790, 32.180, 18.3792
201.416001, 32.107, 12.9348
201.782212, 32.035, 7.4788
202.148423, 31.963, 2.0122
202.514634, 31.893, -3.4631
202.880845, 31.822, -8.9463
203.247055, 31.752, -14.4358
203.613266, 31.683, -19.9299
203.979477, 31.614, -25.4272
204.345688, 31.546, -30.9265
204.711899, 31.478, -36.4263
205.078110, 31.410, -41.9246
205.444321, 31.343, -47.4204
205.810532, 31.276, -52.9121
206.176743, 31.210, -58.3982
206.542954, 31.144, -63.8770
206.909164, 31.078, -69.3474
207.275375, 31.013, -74.8074
207.641586, 30.948, -80.2561
208.007797, 30.883, -85.6914
208.374008, 30.818, -91.1125
208.740219, 30.754, -96.5176
209.106430, 30.690, -101.9053
209.472641, 30.626, -107.2742
209.838852, 30.562, -112.6230
210.205063, 30.499, -117.9504
210.571274, 30.435, -123.2549
210.937484, 30.372, -128.5354
211.303695, 30.310, -133.7905
211.669906, 30.247, -139.0188
212.036117, 30.185, -144.2197
212.402328, 30.122, -149.3914
212.768539, 30.060, -154.5332
213.134750, 29.999, -159.6438
213.500961, 29.937, -164.7224
213.867172, 29.876, -169.7681
214.233383, 29.815, -174.7793
214.599594, 29.755, -179.7559
214.965804, 29.695, 175.3032
215.332015, 29.635, 170.3989
215.698226, 29.575, 165.5320
216.064437, 29.516, 160.7029
216.430648, 29.457, 155.9126
216.796859, 29.398, 151.1614
217.163070, 29.340, 146.4497
217.529281, 29.283, 141.7786
217.895492, 29.226, 137.1479
218.261703, 29.169, 132.5586
218.627914, 29.113, 128.0105
218.994124, 29.057, 123.5044
219.360335, 29.002, 119.0405
219.726546, 28.948, 114.6189
220.092757, 28.894, 110.2397
220.458968, 28.840, 105.9036
220.825179, 28.787, 101.6104
221.191390, 28.735, 97.3601
221.557601, 28.684, 93.1531
221.923812, 28.633, 88.9895
222.290023, 28.583, 84.8694
222.656234, 28.533, 80.7925
223.022444, 28.484, 76.7595
223.388655, 28.436, 72.7698
223.754866, 28.389, 68.8240
224.121077, 28.343, 64.9216
224.487288, 28.297, 61.0630
224.853499, 28.252, 57.2483
225.219710, 28.207, 53.4771
225.585921, 28.164, 49.7500
225.952132, 28.121, 46.0667
226.318343, 28.079, 42.4270
226.684554, 28.038, 38.8315
227.050764, 27.998, 35.2803
227.416975, 27.958, 31.7729
227.783186, 27.920, 28.3101
228.149397, 27.882, 24.8914
228.515608, 27.844, 21.5173
228.881819, 27.808, 18.1880
229.248030, 27.772, 14.9033
229.614241, 27.737, 11.6638
229.980452, 27.703, 8.4695
230.346663, 27.670, 5.3206
230.712873, 27.637, 2.2175
231.079084, 27.605, -0.8398
231.445295, 27.574, -3.8511
231.811506, 27.543, -6.8157
232.177717, 27.513, -9.7336
232.543928, 27.484, -12.6045
232.910139, 27.455, -15.4280
233.276350, 27.427, -18.2039
233.642561, 27.400, -20.9316
234.008772, 27.373, -23.6111
234.374983, 27.346, -26.2417
234.741193, 27.320, -28.8232
235.107404, 27.295, -31.3555
235.473615, 27.270, -33.8379
235.839826, 27.246, -36.2700
236.206037, 27.222, -38.6516
236.572248, 27.198, -40.9824
236.938459, 27.175, -43.2617
237.304670, 27.152, -45.4895
237.670881, 27.129, -47.6655
238.037092, 27.107, -49.7888
238.403303, 27.085, -51.8599
238.769513, 27.064, -53.8774
239.135724, 27.043, -55.8420
239.501935, 27.022, -57.7529
239.868146, 27.001, -59.6096
240.234357, 26.981, -61.4121
240.600568, 26.961, -63.1602
240.966779, 26.941, -64.8535
241.332990, 26.921, -66.4917
241.699201, 26.902, -68.0745
242.065412, 26.883, -69.6018
242.431623, 26.864, -71.0735
242.797833, 26.845, -72.4893
243.164044, 26.826, -73.8486
243.530255, 26.808, -75.1521
243.896466, 26.790, -76.3989
244.262677, 26.772, -77.5894
244.628888, 26.755, -78.7229
244.995099, 26.737, -79.8000
245.361310, 26.720, -80.8201
245.727521, 26.703, -81.7834
246.093732, 26.687, -82.6897
246.459943, 26.671, -83.5391
246.826153, 26.655, -84.3315
247.192364, 26.639, -85.0671
247.558575, 26.623, -85.7456
247.924786, 26.608, -86.3672
248.290997, 26.594, -86.9321
248.657208, 26.579, -87.4402
249.023419, 26.565, -87.8916
249.389630, 26.552, -88.2866
249.755841, 26.538, -88.6250
250.122052, 26.525, -88.9072
250.488263, 26.513, -89.1331
250.854473, 26.501, -89.3032
251.220684, 26.489, -89.4175
251.586895, 26.478, -89.4761
251.953106, 26.467, -89.4795
252.319317, 26.456, -89.4275
252.685528, 26.447, -89.3208
253.051739, 26.437, -89.1594
253.417950, 26.428, -88.9436
253.784161, 26.420, -88.6738
254.150372, 26.412, -88.3501
254.516582, 26.404, -87.9729
254.882793, 26.397, -87.5427
255.249004, 26.390, -87.0598
255.615215, 26.384, -86.5244
255.981426, 26.379, -85.9370
256.347637, 26.374, -85.2979
256.713848, 26.369, -84.6077
257.080059, 26.365, -83.8665
257.446270, 26.362, -83.0750
257.812481, 26.358, -82.2336
258.178692, 26.356, -81.3428
258.544902, 26.354, -80.4028
258.911113, 26.352, -79.4143
259.277324, 26.351, -78.3779
259.643535, 26.350, -77.2939
260.009746, 26.350, -76.1631
260.375957, 26.350, -74.9856
260.742168, 26.350, -73.7625
261.108379, 26.351, -72.4939
261.474590, 26.352, -71.1804
261.840801, 26.354, -69.8230
262.207012, 26.356, -68.4219
262.573222, 26.358, -66.9778
262.939433, 26.361, -65.4912
263.305644, 26.364, -63.9631
263.671855, 26.367, -62.3938
264.038066, 26.370, -60.7842
264.404277, 26.374, -59.1348
264.770488, 26.378, -57.4460
265.136699, 26.382, -55.7190
265.502910, 26.386, -53.9543
265.869121, 26.391, -52.1523
266.235332, 26.395, -50.3140
266.601542, 26.400, -48.4402
266.967753, 26.405, -46.5312
267.333964, 26.410, -44.5879
267.700175, 26.415, -42.6113
268.066386, 26.420, -40.6018
268.432597, 26.424, -38.5601
268.798808, 26.429, -36.4873
269.165019, 26.434, -34.3838
269.531230, 26.439, -32.2505
269.897441, 26.444, -30.0881
270.263652, 26.448, -27.8972
270.629862, 26.453, -25.6790
270.996073, 26.457, -23.4338
271.362284, 26.461, -21.1628
271.728495, 26.465, -18.8665
272.094706, 26.468, -16.5454
272.460917, 26.472, -14.2012
272.827128, 26.475, -11.8333
273.193339, 26.478, -9.4434
273.559550, 26.480, -7.0325
273.925761, 26.482, -4.6001
274.291972, 26.484, -2.1484
274.658182, 26.486, 0.3223
275.024393, 26.487, 2.8120
275.390604, 26.487, 5.3188
275.756815, 26.488, 7.8423
276.123026, 26.487, 10.3826
276.489237, 26.487, 12.9377
