Freq(Hz), SPL(dB), Phase(degrees)
20.141602, 74.717, -109.9454
20.507812, 74.671, -109.8908
20.874023, 75.353, -110.7667
21.240234, 76.230, -111.9940
21.606445, 77.220, -113.4802
21.972656, 78.269, -115.1414
22.338867, 79.346, -116.9124
22.705078, 80.433, -118.7444
23.071289, 81.522, -120.5974
23.437500, 82.609, -122.4344
23.803711, 83.692, -124.2216
24.169922, 84.770, -125.9345
24.536132, 85.840, -127.5642
24.902343, 86.899, -129.1182
25.268554, 87.944, -130.6169
25.634765, 88.969, -132.0873
26.000976, 89.971, -133.5615
26.367187, 90.944, -135.0786
26.733398, 91.884, -136.6884
27.099609, 92.786, -138.4526
27.465820, 93.644, -140.4412
27.832031, 94.453, -142.7253
28.198242, 95.208, -145.3705
28.564452, 95.903, -148.4318
28.930663, 96.533, -151.9496
29.296874, 97.093, -155.9441
29.663085, 97.578, -160.4073
30.029296, 97.982, -165.2944
30.395507, 98.303, -170.5187
30.761718, 98.537, -175.9543
31.127929, 98.684, 178.5535
31.494140, 98.746, 173.1712
31.860351, 98.726, 168.0571
32.226562, 98.630, 163.3419
32.592772, 98.465, 159.1146
32.958983, 98.240, 155.4144
33.325194, 97.963, 152.2336
33.691405, 97.644, 149.5279
34.057616, 97.291, 147.2339
34.423827, 96.912, 145.2865
34.790038, 96.512, 143.6331
35.156249, 96.097, 142.2398
35.522460, 95.671, 141.0922
35.888671, 95.237, 140.1905
36.254882, 94.798, 139.5428
36.621092, 94.357, 139.1584
36.987303, 93.919, 139.0425
37.353514, 93.488, 139.1920
37.719725, 93.070, 139.5941
38.085936, 92.671, 140.2260
38.452147, 92.300, 141.0555
38.818358, 91.964, 142.0428
39.184569, 91.671, 143.1414
39.550780, 91.429, 144.2993
39.916991, 91.244, 145.4605
40.283201, 91.120, 146.5657
40.649412, 91.057, 147.5533
41.015623, 91.055, 148.3600
41.381834, 91.108, 148.9218
41.748045, 91.209, 149.1744
42.114256, 91.349, 149.0544
42.480467, 91.518, 148.5000
42.846678, 91.708, 147.4518
43.212889, 91.907, 145.8544
43.579100, 92.107, 143.6578
43.945311, 92.301, 140.8182
44.311521, 92.480, 137.2994
44.677732, 92.638, 133.0741
45.043943, 92.772, 128.1247
45.410154, 92.875, 122.4437
45.776365, 92.946, 116.0339
46.142576, 92.981, 108.9077
46.508787, 92.979, 101.0866
46.874998, 92.940, 92.5992
47.241209, 92.864, 83.4803
47.607420, 92.753, 73.7698
47.973631, 92.608, 63.5122
48.339841, 92.433, 52.7560
48.706052, 92.229, 41.5546
49.072263, 92.001, 29.9669
49.438474, 91.753, 18.0579
49.804685, 91.487, 5.8985
50.170896, 91.208, -6.4350
50.537107, 90.920, -18.8628
50.903318, 90.626, -31.3046
51.269529, 90.330, -43.6827
51.635740, 90.038, -55.9268
52.001951, 89.751, -67.9763
52.368161, 89.474, -79.7837
52.734372, 89.211, -91.3170
53.100583, 88.965, -102.5601
53.466794, 88.741, -113.5137
53.833005, 88.539, -124.1947
54.199216, 88.365, -134.6353
54.565427, 88.219, -144.8811
54.931638, 88.102, -154.9904
55.297849, 88.016, -165.0311
55.664060, 87.960, -175.0789
56.030271, 87.933, 174.7845
56.396481, 87.932, 164.4738
56.762692, 87.954, 153.9025
57.128903, 87.996, 142.9843
57.495114, 88.055, 131.6356
57.861325, 88.125, 119.7765
58.227536, 88.203, 107.3333
58.593747, 88.285, 94.2390
58.959958, 88.366, 80.4352
59.326169, 88.444, 65.8734
59.692380, 88.515, 50.5151
60.058591, 88.577, 34.3329
60.424801, 88.627, 17.3115
60.791012, 88.664, -0.5529
61.157223, 88.685, -19.2520
61.523434, 88.691, -38.7657
61.889645, 88.681, -59.0620
62.255856, 88.654, -80.0981
62.622067, 88.611, -101.8206
62.988278, 88.553, -124.1660
63.354489, 88.480, -147.0627
63.720700, 88.395, -170.4316
64.086910, 88.298, 165.8130
64.453121, 88.190, 141.7612
64.819332, 88.075, 117.5062
65.185543, 87.954, 93.1421
65.551754, 87.827, 68.7625
65.917965, 87.699, 44.4589
66.284176, 87.569, 20.3191
66.650387, 87.440, -3.5743
67.016598, 87.312, -27.1453
67.382809, 87.187, -50.3240
67.749020, 87.067, -73.0498
68.115230, 86.950, -95.2684
68.481441, 86.838, -116.9335
68.847652, 86.730, -138.0057
69.213863, 86.626, -158.4525
69.580074, 86.526, -178.2473
69.946285, 86.429, 162.6311
70.312496, 86.334, 144.1989
70.678707, 86.240, 126.4679
71.044918, 86.146, 109.4459
71.411129, 86.051, 93.1370
71.777340, 85.955, 77.5416
72.143550, 85.856, 62.6570
72.509761, 85.753, 48.4771
72.875972, 85.647, 34.9930
73.242183, 85.536, 22.1930
73.608394, 85.421, 10.0624
73.974605, 85.300, -1.4159
74.340816, 85.174, -12.2609
74.707027, 85.043, -22.4945
75.073238, 84.906, -32.1406
75.439449, 84.763, -41.2247
75.805660, 84.615, -49.7747
76.171870, 84.462, -57.8201
76.538081, 84.303, -65.3916
76.904292, 84.140, -72.5227
77.270503, 83.973, -79.2469
77.636714, 83.802, -85.5995
78.002925, 83.628, -91.6169
78.369136, 83.451, -97.3356
78.735347, 83.271, -102.7922
79.101558, 83.090, -108.0237
79.467769, 82.908, -113.0660
79.833980, 82.726, -117.9546
80.200190, 82.543, -122.7236
80.566401, 82.360, -127.4056
80.932612, 82.179, -132.0317
81.298823, 81.999, -136.6310
81.665034, 81.820, -141.2306
82.031245, 81.644, -145.8558
82.397456, 81.470, -150.5295
82.763667, 81.299, -155.2732
83.129878, 81.131, -160.1051
83.496089, 80.967, -165.0421
83.862300, 80.806, -170.0994
84.228510, 80.648, -175.2888
84.594721, 80.495, 179.3789
84.960932, 80.346, 173.8953
85.327143, 80.200, 168.2544
85.693354, 80.060, 162.4524
86.059565, 79.923, 156.4867
86.425776, 79.791, 150.3579
86.791987, 79.664, 144.0684
87.158198, 79.541, 137.6217
87.524409, 79.423, 131.0245
87.890619, 79.309, 124.2848
88.256830, 79.200, 117.4117
88.623041, 79.096, 110.4167
88.989252, 78.997, 103.3125
89.355463, 78.903, 96.1122
89.721674, 78.813, 88.8309
90.087885, 78.729, 81.4839
90.454096, 78.649, 74.0867
90.820307, 78.575, 66.6558
91.186518, 78.506, 59.2069
91.552729, 78.441, 51.7557
91.918939, 78.382, 44.3179
92.285150, 78.328, 36.9077
92.651361, 78.279, 29.5386
93.017572, 78.235, 22.2234
93.383783, 78.197, 14.9734
93.749994, 78.163, 7.7983
94.116205, 78.134, 0.7069
94.482416, 78.111, -6.2939
94.848627, 78.092, -13.1986
95.214838, 78.078, -20.0031
95.581049, 78.069, -26.7045
95.947259, 78.064, -33.3018
96.313470, 78.064, -39.7950
96.679681, 78.069, -46.1854
97.045892, 78.077, -52.4755
97.412103, 78.089, -58.6686
97.778314, 78.105, -64.7689
98.144525, 78.124, -70.7817
98.510736, 78.147, -76.7131
98.876947, 78.171, -82.5693
99.243158, 78.198, -88.3572
99.609369, 78.227, -94.0842
99.975579, 78.258, -99.7583
100.341790, 78.289, -105.3867
100.708001, 78.321, -110.9785
101.074212, 78.353, -116.5415
101.440423, 78.385, -122.0840
101.806634, 78.416, -127.6143
102.172845, 78.446, -133.1411
102.539056, 78.474, -138.6719
102.905267, 78.500, -144.2148
103.271478, 78.523, -149.7778
103.637689, 78.544, -155.3684
104.003899, 78.562, -160.9941
104.370110, 78.575, -166.6616
104.736321, 78.585, -172.3779
105.102532, 78.590, -178.1499
105.468743, 78.591, 176.0171
105.834954, 78.587, 170.1162
106.201165, 78.577, 164.1421
106.567376, 78.562, 158.0896
106.933587, 78.541, 151.9534
107.299798, 78.515, 145.7290
107.666009, 78.482, 139.4116
108.032219, 78.443, 132.9971
108.398430, 78.399, 126.4819
108.764641, 78.348, 119.8623
109.130852, 78.291, 113.1348
109.497063, 78.228, 106.2964
109.863274, 78.159, 99.3450
110.229485, 78.084, 92.2778
110.595696, 78.003, 85.0933
110.961907, 77.916, 77.7900
111.328118, 77.825, 70.3672
111.694328, 77.727, 62.8242
112.060539, 77.625, 55.1614
112.426750, 77.518, 47.3794
112.792961, 77.406, 39.4795
113.159172, 77.289, 31.4641
113.525383, 77.169, 23.3357
113.891594, 77.044, 15.0979
114.257805, 76.915, 6.7554
114.624016, 76.782, -1.6875
114.990227, 76.646, -10.2244
115.356438, 76.506, -18.8484
115.722648, 76.363, -27.5527
116.088859, 76.217, -36.3291
116.455070, 76.068, -45.1685
116.821281, 75.916, -54.0615
117.187492, 75.762, -62.9980
117.553703, 75.605, -71.9678
117.919914, 75.445, -80.9597
118.286125, 75.283, -89.9622
118.652336, 75.119, -98.9639
119.018547, 74.953, -107.9526
119.384758, 74.785, -116.9170
119.750968, 74.615, -125.8450
120.117179, 74.443, -134.7244
120.483390, 74.269, -143.5444
120.849601, 74.093, -152.2932
121.215812, 73.915, -160.9602
121.582023, 73.736, -169.5354
121.948234, 73.556, -178.0083
122.314445, 73.373, 173.6296
122.680656, 73.190, 165.3870
123.046867, 73.005, 157.2715
123.413078, 72.818, 149.2900
123.779288, 72.630, 141.4485
124.145499, 72.441, 133.7522
124.511710, 72.251, 126.2056
124.877921, 72.060, 118.8123
125.244132, 71.868, 111.5745
125.610343, 71.675, 104.4949
125.976554, 71.481, 97.5737
126.342765, 71.286, 90.8123
126.708976, 71.090, 84.2095
127.075187, 70.894, 77.7651
127.441398, 70.697, 71.4773
127.807608, 70.500, 65.3445
128.173819, 70.302, 59.3638
128.540030, 70.104, 53.5330
128.906241, 69.905, 47.8481
129.272452, 69.706, 42.3066
129.638663, 69.507, 36.9050
130.004874, 69.308, 31.6387
130.371085, 69.109, 26.5051
130.737296, 68.910, 21.5000
131.103507, 68.711, 16.6191
131.469718, 68.512, 11.8599
131.835928, 68.313, 7.2183
132.202139, 68.115, 2.6904
132.568350, 67.917, -1.7261
132.934561, 67.720, -6.0339
133.300772, 67.523, -10.2368
133.666983, 67.326, -14.3362
134.033194, 67.131, -18.3345
134.399405, 66.935, -22.2334
134.765616, 66.741, -26.0342
135.131827, 66.547, -29.7383
135.498037, 66.354, -33.3459
135.864248, 66.161, -36.8582
136.230459, 65.970, -40.2747
136.596670, 65.779, -43.5952
136.962881, 65.589, -46.8193
137.329092, 65.400, -49.9463
137.695303, 65.212, -52.9751
138.061514, 65.024, -55.9045
138.427725, 64.838, -58.7329
138.793936, 64.652, -61.4585
139.160147, 64.467, -64.0798
139.526357, 64.282, -66.5950
139.892568, 64.099, -69.0020
140.258779, 63.916, -71.2988
140.624990, 63.734, -73.4836
140.991201, 63.552, -75.5544
141.357412, 63.371, -77.5093
141.723623, 63.190, -79.3469
142.089834, 63.010, -81.0652
142.456045, 62.831, -82.6628
142.822256, 62.652, -84.1384
143.188467, 62.473, -85.4912
143.554677, 62.295, -86.7200
143.920888, 62.117, -87.8240
144.287099, 61.939, -88.8030
144.653310, 61.762, -89.6565
145.019521, 61.584, -90.3848
145.385732, 61.407, -90.9875
145.751943, 61.231, -91.4656
146.118154, 61.054, -91.8193
146.484365, 60.878, -92.0496
146.850576, 60.702, -92.1575
147.216787, 60.525, -92.1445
147.582997, 60.349, -92.0117
147.949208, 60.173, -91.7607
148.315419, 59.998, -91.3938
148.681630, 59.822, -90.9124
149.047841, 59.646, -90.3186
149.414052, 59.470, -89.6150
149.780263, 59.295, -88.8035
150.146474, 59.119, -87.8870
150.512685, 58.943, -86.8679
150.878896, 58.768, -85.7488
151.245107, 58.592, -84.5322
151.611317, 58.417, -83.2214
151.977528, 58.242, -81.8191
152.343739, 58.066, -80.3279
152.709950, 57.891, -78.7510
153.076161, 57.715, -77.0913
153.442372, 57.540, -75.3516
153.808583, 57.365, -73.5347
154.174794, 57.190, -71.6438
154.541005, 57.014, -69.6816
154.907216, 56.839, -67.6509
155.273427, 56.664, -65.5547
155.639637, 56.489, -63.3953
156.005848, 56.314, -61.1758
156.372059, 56.139, -58.8987
156.738270, 55.964, -56.5664
157.104481, 55.789, -54.1816
157.470692, 55.614, -51.7466
157.836903, 55.439, -49.2637
158.203114, 55.264, -46.7351
158.569325, 55.089, -44.1636
158.935536, 54.914, -41.5505
159.301746, 54.739, -38.8987
159.667957, 54.564, -36.2100
160.034168, 54.390, -33.4866
160.400379, 54.215, -30.7302
160.766590, 54.040, -27.9431
161.132801, 53.865, -25.1270
161.499012, 53.690, -22.2842
161.865223, 53.515, -19.4163
162.231434, 53.340, -16.5254
162.597645, 53.165, -13.6135
162.963856, 52.990, -10.6824
163.330066, 52.814, -7.7341
163.696277, 52.639, -4.7705
164.062488, 52.464, -1.7937
164.428699, 52.289, 1.1946
164.794910, 52.113, 4.1921
165.161121, 51.938, 7.1973
165.527332, 51.762, 10.2073
165.893543, 51.587, 13.2209
166.259754, 51.411, 16.2356
166.625965, 51.235, 19.2493
166.992176, 51.060, 22.2600
167.358386, 50.884, 25.2654
167.724597, 50.708, 28.2637
168.090808, 50.532, 31.2522
168.457019, 50.356, 34.2292
168.823230, 50.180, 37.1921
169.189441, 50.004, 40.1389
169.555652, 49.828, 43.0671
169.921863, 49.652, 45.9746
170.288074, 49.476, 48.8594
170.654285, 49.300, 51.7185
171.020496, 49.124, 54.5503
171.386706, 48.948, 57.3521
171.752917, 48.772, 60.1218
172.119128, 48.596, 62.8569
172.485339, 48.420, 65.5552
172.851550, 48.245, 68.2146
173.217761, 48.069, 70.8325
173.583972, 47.893, 73.4070
173.950183, 47.718, 75.9355
174.316394, 47.543, 78.4158
174.682605, 47.368, 80.8459
175.048816, 47.193, 83.2234
175.415026, 47.018, 85.5461
175.781237, 46.843, 87.8123
176.147448, 46.669, 90.0193
176.513659, 46.495, 92.1653
176.879870, 46.321, 94.2480
177.246081, 46.148, 96.2659
177.612292, 45.975, 98.2168
177.978503, 45.802, 100.0986
178.344714, 45.630, 101.9099
178.710925, 45.457, 103.6482
179.077136, 45.286, 105.3125
179.443346, 45.114, 106.9004
179.809557, 44.944, 108.4106
180.175768, 44.773, 109.8413
180.541979, 44.604, 111.1912
180.908190, 44.434, 112.4585
181.274401, 44.266, 113.6421
181.640612, 44.097, 114.7402
182.006823, 43.930, 115.7520
182.373034, 43.763, 116.6758
182.739245, 43.597, 117.5105
183.105455, 43.431, 118.2551
183.471666, 43.267, 118.9082
183.837877, 43.103, 119.4692
184.204088, 42.939, 119.9373
184.570299, 42.777, 120.3110
184.936510, 42.615, 120.5898
185.302721, 42.455, 120.7732
185.668932, 42.295, 120.8604
186.035143, 42.136, 120.8506
186.401354, 41.979, 120.7434
186.767565, 41.822, 120.5386
187.133775, 41.666, 120.2356
187.499986, 41.512, 119.8345
187.866197, 41.358, 119.3345
188.232408, 41.206, 118.7361
188.598619, 41.055, 118.0393
188.964830, 40.905, 117.2437
189.331041, 40.757, 116.3499
189.697252, 40.610, 115.3582
190.063463, 40.464, 114.2688
190.429674, 40.320, 113.0823
190.795885, 40.177, 111.7991
191.162095, 40.035, 110.4202
191.528306, 39.895, 108.9460
191.894517, 39.756, 107.3777
192.260728, 39.619, 105.7161
192.626939, 39.483, 103.9624
192.993150, 39.349, 102.1177
193.359361, 39.217, 100.1833
193.725572, 39.086, 98.1606
194.091783, 38.956, 96.0508
194.457994, 38.829, 93.8557
194.824205, 38.702, 91.5769
195.190415, 38.578, 89.2161
195.556626, 38.455, 86.7749
195.922837, 38.333, 84.2554
196.289048, 38.213, 81.6594
196.655259, 38.095, 78.9888
197.021470, 37.978, 76.2456
197.387681, 37.863, 73.4321
197.753892, 37.749, 70.5503
198.120103, 37.637, 67.6023
198.486314, 37.527, 64.5906
198.852525, 37.417, 61.5168
199.218735, 37.310, 58.3838
199.584946, 37.203, 55.1934
199.951157, 37.098, 51.9480
200.317368, 36.994, 48.6499
200.683579, 36.892, 45.3013
201.049790, 36.791, 41.9045
201.416001, 36.691, 38.4614
201.782212, 36.593, 34.9746
202.148423, 36.495, 31.4458
202.514634, 36.399, 27.8772
202.880845, 36.304, 24.2710
203.247055, 36.210, 20.6292
203.613266, 36.117, 16.9536
203.979477, 36.025, 13.2461
204.345688, 35.934, 9.5085
204.711899, 35.844, 5.7424
205.078110, 35.755, 1.9497
205.444321, 35.667, -1.8682
205.810532, 35.580, -5.7100
206.176743, 35.494, -9.5740
206.542954, 35.409, -13.4590
206.909164, 35.325, -17.3638
207.275375, 35.241, -21.2874
207.641586, 35.159, -25.2285
208.007797, 35.077, -29.1865
208.374008, 34.996, -33.1604
208.740219, 34.915, -37.1494
209.106430, 34.836, -41.1531
209.472641, 34.757, -45.1709
209.838852, 34.680, -49.2024
210.205063, 34.602, -53.2468
210.571274, 34.526, -57.3047
210.937484, 34.451, -61.3750
211.303695, 34.376, -65.4583
211.669906, 34.302, -69.5542
212.036117, 34.229, -73.6628
212.402328, 34.157, -77.7844
212.768539, 34.085, -81.9189
213.134750, 34.014, -86.0671
213.500961, 33.944, -90.2290
213.867172, 33.875, -94.4048
214.233383, 33.807, -98.5952
214.599594, 33.740, -102.8005
214.965804, 33.673, -107.0215
215.332015, 33.608, -111.2585
215.698226, 33.543, -115.5120
216.064437, 33.479, -119.7827
216.430648, 33.416, -124.0713
216.796859, 33.354, -128.3782
217.163070, 33.292, -132.7041
217.529281, 33.232, -137.0498
217.895492, 33.173, -141.4158
218.261703, 33.114, -145.8027
218.627914, 33.057, -150.2114
218.994124, 33.000, -154.6418
219.360335, 32.944, -159.0952
219.726546, 32.890, -163.5720
220.092757, 32.836, -168.0725
220.458968, 32.783, -172.5972
220.825179, 32.731, -177.1467
221.191390, 32.680, 178.2783
221.557601, 32.630, 173.6780
221.923812, 32.581, 169.0513
222.290023, 32.533, 164.3984
222.656234, 32.486, 159.7190
223.022444, 32.440, 155.0125
223.388655, 32.394, 150.2788
223.754866, 32.350, 145.5178
224.121077, 32.306, 140.7295
224.487288, 32.264, 135.9136
224.853499, 32.222, 131.0701
225.219710, 32.181, 126.1987
225.585921, 32.141, 121.3000
225.952132, 32.101, 116.3738
226.318343, 32.063, 111.4202
226.684554, 32.025, 106.4392
227.050764, 31.988, 101.4314
227.416975, 31.952, 96.3967
227.783186, 31.916, 91.3352
228.149397, 31.881, 86.2478
228.515608, 31.847, 81.1343
228.881819, 31.813, 75.9951
229.248030, 31.780, 70.8308
229.614241, 31.748, 65.6418
229.980452, 31.716, 60.4287
230.346663, 31.684, 55.1917
230.712873, 31.653, 49.9316
231.079084, 31.622, 44.6487
231.445295, 31.592, 39.3438
231.811506, 31.563, 34.0173
232.177717, 31.533, 28.6702
232.543928, 31.504, 23.3030
232.910139, 31.475, 17.9163
233.276350, 31.447, 12.5107
233.642561, 31.419, 7.0874
234.008772, 31.391, 1.6472
234.374983, 31.363, -3.8096
234.741193, 31.335, -9.2815
235.107404, 31.308, -14.7683
235.473615, 31.281, -20.2686
235.839826, 31.253, -25.7815
236.206037, 31.226, -31.3062
236.572248, 31.199, -36.8413
236.938459, 31.172, -42.3865
237.304670, 31.145, -47.9402
237.670881, 31.118, -53.5015
238.037092, 31.091, -59.0693
238.403303, 31.064, -64.6423
238.769513, 31.037, -70.2195
239.135724, 31.010, -75.7998
239.501935, 30.983, -81.3818
239.868146, 30.955, -86.9646
240.234357, 30.928, -92.5464
240.600568, 30.901, -98.1265
240.966779, 30.873, -103.7031
241.332990, 30.846, -109.2754
241.699201, 30.818, -114.8416
242.065412, 30.790, -120.4006
242.431623, 30.763, -125.9512
242.797833, 30.735, -131.4917
243.164044, 30.707, -137.0208
243.530255, 30.679, -142.5371
243.896466, 30.651, -148.0393
244.262677, 30.622, -153.5259
244.628888, 30.594, -158.9954
244.995099, 30.566, -164.4463
245.361310, 30.537, -169.8772
245.727521, 30.508, -175.2869
246.093732, 30.480, 179.3264
246.459943, 30.451, 173.9641
246.826153, 30.422, 168.6274
247.192364, 30.394, 163.3181
247.558575, 30.365, 158.0376
247.924786, 30.336, 152.7869
248.290997, 30.307, 147.5681
248.657208, 30.278, 142.3821
249.023419, 30.249, 137.2305
249.389630, 30.220, 132.1147
249.755841, 30.191, 127.0364
250.122052, 30.162, 121.9963
250.488263, 30.133, 116.9963
250.854473, 30.104, 112.0376
251.220684, 30.075, 107.1216
251.586895, 30.046, 102.2493
251.953106, 30.017, 97.4219
252.319317, 29.988, 92.6411
252.685528, 29.959, 87.9077
253.051739, 29.930, 83.2229
253.417950, 29.901, 78.5879
253.784161, 29.872, 74.0039
254.150372, 29.844, 69.4719
254.516582, 29.815, 64.9927
254.882793, 29.786, 60.5674
255.249004, 29.758, 56.1968
255.615215, 29.729, 51.8821
255.981426, 29.701, 47.6240
256.347637, 29.673, 43.4233
256.713848, 29.644, 39.2805
257.080059, 29.616, 35.1963
257.446270, 29.588, 31.1719
257.812481, 29.560, 27.2068
258.178692, 29.532, 23.3027
258.544902, 29.505, 19.4597
258.911113, 29.477, 15.6777
259.277324, 29.450, 11.9578
259.643535, 29.422, 8.3003
260.009746, 29.395, 4.7046
260.375957, 29.368, 1.1719
260.742168, 29.341, -2.2976
261.108379, 29.314, -5.7048
261.474590, 29.287, -9.0486
261.840801, 29.260, -12.3293
262.207012, 29.234, -15.5474
262.573222, 29.207, -18.7021
262.939433, 29.181, -21.7937
263.305644, 29.155, -24.8232
263.671855, 29.128, -27.7900
264.038066, 29.102, -30.6943
264.404277, 29.076, -33.5374
264.770488, 29.050, -36.3184
265.136699, 29.025, -39.0378
265.502910, 28.999, -41.6970
265.869121, 28.973, -44.2957
266.235332, 28.948, -46.8340
266.601542, 28.922, -49.3135
266.967753, 28.897, -51.7339
267.333964, 28.871, -54.0957
267.700175, 28.846, -56.4004
268.066386, 28.821, -58.6477
268.432597, 28.796, -60.8386
268.798808, 28.771, -62.9736
269.165019, 28.746, -65.0537
269.531230, 28.721, -67.0796
269.897441, 28.696, -69.0518
270.263652, 28.671, -70.9709
270.629862, 28.646, -72.8381
270.996073, 28.621, -74.6541
271.362284, 28.596, -76.4192
271.728495, 28.571, -78.1350
272.094706, 28.546, -79.8015
272.460917, 28.521, -81.4199
272.827128, 28.496, -82.9915
273.193339, 28.471, -84.5164
273.559550, 28.447, -85.9954
273.925761, 28.422, -87.4302
274.291972, 28.397, -88.8208
274.658182, 28.372, -90.1680
275.024393, 28.347, -91.4734
275.390604, 28.322, -92.7371
275.756815, 28.297, -93.9602
