Freq(Hz), SPL(dB), Phase(degrees)
20.141602, 77.155, 166.4980
20.507812, 77.109, 166.6302
20.874023, 77.782, 164.4882
21.240234, 78.637, 161.4150
21.606445, 79.586, 157.5608
21.972656, 80.573, 153.0760
22.338867, 81.565, 148.1037
22.705078, 82.546, 142.7766
23.071289, 83.509, 137.2144
23.437500, 84.454, 131.5195
23.803711, 85.381, 125.7722
24.169922, 86.292, 120.0278
24.536132, 87.189, 114.3193
24.902343, 88.070, 108.6624
25.268554, 88.937, 103.0624
25.634765, 89.788, 97.5177
26.000976, 90.624, 92.0196
26.367187, 91.440, 86.5499
26.733398, 92.235, 81.0790
27.099609, 93.004, 75.5672
27.465820, 93.742, 69.9687
27.832031, 94.446, 64.2368
28.198242, 95.108, 58.3284
28.564452, 95.725, 52.2070
28.930663, 96.291, 45.8452
29.296874, 96.801, 39.2281
29.663085, 97.249, 32.3592
30.029296, 97.631, 25.2654
30.395507, 97.944, 18.0005
30.761718, 98.185, 10.6421
31.127929, 98.356, 3.2836
31.494140, 98.458, -3.9794
31.860351, 98.496, -11.0632
32.226562, 98.476, -17.9082
32.592772, 98.405, -24.4846
32.958983, 98.291, -30.7882
33.325194, 98.139, -36.8286
33.691405, 97.954, -42.6113
34.057616, 97.740, -48.1204
34.423827, 97.496, -53.3092
34.790038, 97.223, -58.0989
35.156249, 96.920, -62.3867
35.522460, 96.588, -66.0591
35.888671, 96.227, -69.0063
36.254882, 95.841, -71.1366
36.621092, 95.433, -72.3867
36.987303, 95.011, -72.7296
37.353514, 94.584, -72.1774
37.719725, 94.162, -70.7816
38.085936, 93.759, -68.6312
38.452147, 93.390, -65.8478
38.818358, 93.071, -62.5801
39.184569, 92.819, -58.9955
39.550780, 92.645, -55.2711
39.916991, 92.558, -51.5842
40.283201, 92.562, -48.1037
40.649412, 92.652, -44.9833
41.015623, 92.820, -42.3580
41.381834, 93.050, -40.3422
41.748045, 93.328, -39.0297
42.114256, 93.639, -38.4954
42.480467, 93.966, -38.7975
42.846678, 94.299, -39.9786
43.212889, 94.625, -42.0677
43.579100, 94.937, -45.0819
43.945311, 95.227, -49.0264
44.311521, 95.488, -53.8961
44.677732, 95.717, -59.6751
45.043943, 95.909, -66.3373
45.410154, 96.061, -73.8462
45.776365, 96.172, -82.1560
46.142576, 96.239, -91.2122
46.508787, 96.262, -100.9531
46.874998, 96.242, -111.3113
47.241209, 96.179, -122.2151
47.607420, 96.075, -133.5898
47.973631, 95.932, -145.3580
48.339841, 95.753, -157.4399
48.706052, 95.539, -169.7526
49.072263, 95.295, 177.7909
49.438474, 95.024, 165.2818
49.804685, 94.728, 152.8165
50.170896, 94.412, 140.4954
50.537107, 94.079, 128.4216
50.903318, 93.732, 116.6977
51.269529, 93.374, 105.4224
51.635740, 93.011, 94.6861
52.001951, 92.645, 84.5676
52.368161, 92.280, 75.1298
52.734372, 91.922, 66.4185
53.100583, 91.576, 58.4601
53.466794, 91.245, 51.2621
53.833005, 90.934, 44.8133
54.199216, 90.650, 39.0859
54.565427, 90.395, 34.0381
54.931638, 90.174, 29.6166
55.297849, 89.990, 25.7603
55.664060, 89.844, 22.4034
56.030271, 89.736, 19.4789
56.396481, 89.666, 16.9207
56.762692, 89.632, 14.6660
57.128903, 89.630, 12.6578
57.495114, 89.656, 10.8449
57.861325, 89.705, 9.1835
58.227536, 89.772, 7.6372
58.593747, 89.854, 6.1773
58.959958, 89.946, 4.7820
59.326169, 90.043, 3.4367
59.692380, 90.143, 2.1325
60.058591, 90.243, 0.8661
60.424801, 90.340, -0.3617
60.791012, 90.434, -1.5464
61.157223, 90.522, -2.6815
61.523434, 90.604, -3.7587
61.889645, 90.681, -4.7694
62.255856, 90.751, -5.7053
62.622067, 90.816, -6.5592
62.988278, 90.875, -7.3255
63.354489, 90.930, -8.0009
63.720700, 90.981, -8.5845
64.086910, 91.030, -9.0785
64.453121, 91.076, -9.4880
64.819332, 91.120, -9.8208
65.185543, 91.164, -10.0873
65.551754, 91.207, -10.3000
65.917965, 91.250, -10.4727
66.284176, 91.292, -10.6196
66.650387, 91.335, -10.7551
67.016598, 91.376, -10.8925
67.382809, 91.417, -11.0439
67.749020, 91.455, -11.2192
68.115230, 91.491, -11.4262
68.481441, 91.524, -11.6706
68.847652, 91.553, -11.9554
69.213863, 91.577, -12.2818
69.580074, 91.596, -12.6488
69.946285, 91.608, -13.0536
70.312496, 91.614, -13.4922
70.678707, 91.612, -13.9590
71.044918, 91.602, -14.4476
71.411129, 91.583, -14.9506
71.777340, 91.556, -15.4603
72.143550, 91.520, -15.9682
72.509761, 91.474, -16.4661
72.875972, 91.419, -16.9454
73.242183, 91.354, -17.3978
73.608394, 91.280, -17.8152
73.974605, 91.197, -18.1898
74.340816, 91.104, -18.5142
74.707027, 91.002, -18.7812
75.073238, 90.892, -18.9845
75.439449, 90.773, -19.1177
75.805660, 90.645, -19.1751
76.171870, 90.510, -19.1519
76.538081, 90.366, -19.0436
76.904292, 90.216, -18.8470
77.270503, 90.059, -18.5592
77.636714, 89.896, -18.1789
78.002925, 89.727, -17.7054
78.369136, 89.553, -17.1392
78.735347, 89.375, -16.4819
79.101558, 89.193, -15.7360
79.467769, 89.008, -14.9049
79.833980, 88.821, -13.9930
80.200190, 88.632, -13.0052
80.566401, 88.443, -11.9473
80.932612, 88.254, -10.8253
81.298823, 88.066, -9.6459
81.665034, 87.880, -8.4160
82.031245, 87.696, -7.1427
82.397456, 87.516, -5.8335
82.763667, 87.340, -4.4957
83.129878, 87.169, -3.1368
83.496089, 87.003, -1.7646
83.862300, 86.843, -0.3862
84.228510, 86.689, 0.9907
84.594721, 86.543, 2.3591
84.960932, 86.403, 3.7122
85.327143, 86.271, 5.0435
85.693354, 86.147, 6.3469
86.059565, 86.030, 7.6173
86.425776, 85.920, 8.8498
86.791987, 85.817, 10.0403
87.158198, 85.721, 11.1859
87.524409, 85.632, 12.2838
87.890619, 85.548, 13.3326
88.256830, 85.469, 14.3315
88.623041, 85.395, 15.2803
88.989252, 85.325, 16.1796
89.355463, 85.259, 17.0307
89.721674, 85.195, 17.8354
90.087885, 85.134, 18.5960
90.454096, 85.074, 19.3152
90.820307, 85.015, 19.9962
91.186518, 84.957, 20.6422
91.552729, 84.899, 21.2571
91.918939, 84.840, 21.8445
92.285150, 84.780, 22.4087
92.651361, 84.718, 22.9536
93.017572, 84.655, 23.4835
93.383783, 84.590, 24.0026
93.749994, 84.522, 24.5151
94.116205, 84.451, 25.0249
94.482416, 84.378, 25.5360
94.848627, 84.302, 26.0521
95.214838, 84.222, 26.5767
95.581049, 84.140, 27.1129
95.947259, 84.055, 27.6635
96.313470, 83.966, 28.2312
96.679681, 83.875, 28.8179
97.045892, 83.780, 29.4257
97.412103, 83.683, 30.0557
97.778314, 83.584, 30.7090
98.144525, 83.482, 31.3866
98.510736, 83.378, 32.0887
98.876947, 83.272, 32.8156
99.243158, 83.164, 33.5670
99.609369, 83.055, 34.3427
99.975579, 82.945, 35.1420
100.341790, 82.833, 35.9644
100.708001, 82.720, 36.8087
101.074212, 82.606, 37.6739
101.440423, 82.492, 38.5589
101.806634, 82.377, 39.4623
102.172845, 82.262, 40.3828
102.539056, 82.146, 41.3188
102.905267, 82.031, 42.2689
103.271478, 81.915, 43.2315
103.637689, 81.799, 44.2050
104.003899, 81.683, 45.1880
104.370110, 81.567, 46.1790
104.736321, 81.451, 47.1767
105.102532, 81.334, 48.1797
105.468743, 81.218, 49.1870
105.834954, 81.101, 50.1977
106.201165, 80.984, 51.2109
106.567376, 80.867, 52.2260
106.933587, 80.749, 53.2427
107.299798, 80.630, 54.2606
107.666009, 80.511, 55.2797
108.032219, 80.391, 56.3000
108.398430, 80.270, 57.3217
108.764641, 80.148, 58.3449
109.130852, 80.025, 59.3700
109.497063, 79.901, 60.3972
109.863274, 79.776, 61.4270
110.229485, 79.649, 62.4595
110.595696, 79.522, 63.4952
110.961907, 79.394, 64.5341
111.328118, 79.264, 65.5765
111.694328, 79.134, 66.6226
112.060539, 79.002, 67.6724
112.426750, 78.870, 68.7258
112.792961, 78.737, 69.7828
113.159172, 78.603, 70.8433
113.525383, 78.468, 71.9071
113.891594, 78.333, 72.9741
114.257805, 78.197, 74.0440
114.624016, 78.060, 75.1166
114.990227, 77.924, 76.1918
115.356438, 77.786, 77.2692
115.722648, 77.649, 78.3486
116.088859, 77.511, 79.4301
116.455070, 77.373, 80.5133
116.821281, 77.235, 81.5983
117.187492, 77.097, 82.6851
117.553703, 76.958, 83.7736
117.919914, 76.820, 84.8641
118.286125, 76.681, 85.9567
118.652336, 76.542, 87.0516
119.018547, 76.403, 88.1492
119.384758, 76.263, 89.2499
119.750968, 76.124, 90.3541
120.117179, 75.984, 91.4623
120.483390, 75.844, 92.5751
120.849601, 75.703, 93.6931
121.215812, 75.563, 94.8168
121.582023, 75.421, 95.9469
121.948234, 75.280, 97.0841
122.314445, 75.137, 98.2291
122.680656, 74.995, 99.3824
123.046867, 74.851, 100.5448
123.413078, 74.707, 101.7169
123.779288, 74.563, 102.8990
124.145499, 74.417, 104.0920
124.511710, 74.271, 105.2963
124.877921, 74.124, 106.5121
125.244132, 73.977, 107.7400
125.610343, 73.829, 108.9802
125.976554, 73.679, 110.2330
126.342765, 73.530, 111.4987
126.708976, 73.379, 112.7773
127.075187, 73.228, 114.0690
127.441398, 73.076, 115.3738
127.807608, 72.923, 116.6920
128.173819, 72.770, 118.0233
128.540030, 72.616, 119.3677
128.906241, 72.461, 120.7253
129.272452, 72.306, 122.0959
129.638663, 72.149, 123.4796
130.004874, 71.993, 124.8759
130.371085, 71.835, 126.2852
130.737296, 71.678, 127.7069
131.103507, 71.519, 129.1411
131.469718, 71.360, 130.5876
131.835928, 71.201, 132.0464
132.202139, 71.041, 133.5170
132.568350, 70.880, 134.9996
132.934561, 70.719, 136.4938
133.300772, 70.558, 137.9995
133.666983, 70.396, 139.5165
134.033194, 70.234, 141.0445
134.399405, 70.072, 142.5833
134.765616, 69.909, 144.1329
135.131827, 69.746, 145.6928
135.498037, 69.582, 147.2628
135.864248, 69.419, 148.8429
136.230459, 69.255, 150.4325
136.596670, 69.090, 152.0314
136.962881, 68.926, 153.6396
137.329092, 68.761, 155.2567
137.695303, 68.597, 156.8822
138.061514, 68.432, 158.5162
138.427725, 68.267, 160.1582
138.793936, 68.102, 161.8080
139.160147, 67.937, 163.4656
139.526357, 67.771, 165.1305
139.892568, 67.606, 166.8026
140.258779, 67.440, 168.4816
140.624990, 67.275, 170.1675
140.991201, 67.110, 171.8600
141.357412, 66.944, 173.5591
141.723623, 66.779, 175.2644
142.089834, 66.613, 176.9760
142.456045, 66.448, 178.6937
142.822256, 66.283, -179.5826
143.188467, 66.117, -177.8531
143.554677, 65.952, -176.1178
143.920888, 65.787, -174.3768
144.287099, 65.622, -172.6304
144.653310, 65.457, -170.8784
145.019521, 65.292, -169.1212
145.385732, 65.127, -167.3587
145.751943, 64.962, -165.5912
146.118154, 64.798, -163.8187
146.484365, 64.633, -162.0414
146.850576, 64.469, -160.2594
147.216787, 64.305, -158.4729
147.582997, 64.141, -156.6819
147.949208, 63.977, -154.8868
148.315419, 63.814, -153.0876
148.681630, 63.650, -151.2846
149.047841, 63.487, -149.4778
149.414052, 63.324, -147.6674
149.780263, 63.161, -145.8536
150.146474, 62.998, -144.0366
150.512685, 62.836, -142.2165
150.878896, 62.674, -140.3934
151.245107, 62.511, -138.5676
151.611317, 62.350, -136.7391
151.977528, 62.188, -134.9081
152.343739, 62.026, -133.0746
152.709950, 61.865, -131.2390
153.076161, 61.704, -129.4011
153.442372, 61.543, -127.5612
153.808583, 61.383, -125.7193
154.174794, 61.223, -123.8756
154.541005, 61.062, -122.0302
154.907216, 60.902, -120.1831
155.273427, 60.743, -118.3346
155.639637, 60.583, -116.4846
156.005848, 60.424, -114.6334
156.372059, 60.265, -112.7810
156.738270, 60.106, -110.9276
157.104481, 59.947, -109.0733
157.470692, 59.789, -107.2184
157.836903, 59.630, -105.3629
158.203114, 59.472, -103.5071
158.569325, 59.314, -101.6511
158.935536, 59.157, -99.7953
159.301746, 58.999, -97.9397
159.667957, 58.842, -96.0848
160.034168, 58.685, -94.2306
160.400379, 58.528, -92.3776
160.766590, 58.372, -90.5260
161.132801, 58.215, -88.6761
161.499012, 58.059, -86.8284
161.865223, 57.903, -84.9830
162.231434, 57.748, -83.1404
162.597645, 57.592, -81.3010
162.963856, 57.437, -79.4652
163.330066, 57.282, -77.6333
163.696277, 57.128, -75.8059
164.062488, 56.974, -73.9833
164.428699, 56.820, -72.1659
164.794910, 56.666, -70.3544
165.161121, 56.512, -68.5490
165.527332, 56.359, -66.7504
165.893543, 56.207, -64.9589
166.259754, 56.054, -63.1752
166.625965, 55.902, -61.3995
166.992176, 55.750, -59.6328
167.358386, 55.599, -57.8751
167.724597, 55.448, -56.1273
168.090808, 55.297, -54.3897
168.457019, 55.147, -52.6629
168.823230, 54.997, -50.9475
169.189441, 54.848, -49.2439
169.555652, 54.699, -47.5527
169.921863, 54.550, -45.8745
170.288074, 54.402, -44.2098
170.654285, 54.254, -42.5591
171.020496, 54.106, -40.9229
171.386706, 53.959, -39.3018
171.752917, 53.813, -37.6962
172.119128, 53.667, -36.1069
172.485339, 53.521, -34.5342
172.851550, 53.376, -32.9788
173.217761, 53.231, -31.4410
173.583972, 53.087, -29.9215
173.950183, 52.943, -28.4208
174.316394, 52.800, -26.9395
174.682605, 52.657, -25.4780
175.048816, 52.514, -24.0369
175.415026, 52.372, -22.6167
175.781237, 52.230, -21.2180
176.147448, 52.089, -19.8412
176.513659, 51.948, -18.4869
176.879870, 51.808, -17.1558
177.246081, 51.668, -15.8481
177.612292, 51.529, -14.5645
177.978503, 51.390, -13.3055
178.344714, 51.251, -12.0717
178.710925, 51.113, -10.8635
179.077136, 50.976, -9.6816
179.443346, 50.838, -8.5264
179.809557, 50.701, -7.3984
180.175768, 50.565, -6.2982
180.541979, 50.429, -5.2263
180.908190, 50.293, -4.1832
181.274401, 50.157, -3.1694
181.640612, 50.022, -2.1855
182.006823, 49.888, -1.2319
182.373034, 49.753, -0.3091
182.739245, 49.619, 0.5822
183.105455, 49.486, 1.4418
183.471666, 49.352, 2.2691
183.837877, 49.219, 3.0635
184.204088, 49.087, 3.8248
184.570299, 48.954, 4.5522
184.936510, 48.822, 5.2455
185.302721, 48.690, 5.9043
185.668932, 48.558, 6.5280
186.035143, 48.427, 7.1161
186.401354, 48.296, 7.6685
186.767565, 48.165, 8.1844
187.133775, 48.034, 8.6639
187.499986, 47.904, 9.1063
187.866197, 47.774, 9.5114
188.232408, 47.643, 9.8787
188.598619, 47.514, 10.2081
188.964830, 47.384, 10.4993
189.331041, 47.254, 10.7518
189.697252, 47.125, 10.9656
190.063463, 46.996, 11.1404
190.429674, 46.867, 11.2761
190.795885, 46.738, 11.3723
191.162095, 46.610, 11.4290
191.528306, 46.481, 11.4460
191.894517, 46.353, 11.4235
192.260728, 46.225, 11.3610
192.626939, 46.097, 11.2588
192.993150, 45.969, 11.1168
193.359361, 45.841, 10.9351
193.725572, 45.714, 10.7136
194.091783, 45.586, 10.4525
194.457994, 45.459, 10.1521
194.824205, 45.332, 9.8124
195.190415, 45.205, 9.4337
195.556626, 45.078, 9.0161
195.922837, 44.952, 8.5601
196.289048, 44.825, 8.0659
196.655259, 44.699, 7.5340
197.021470, 44.573, 6.9647
197.387681, 44.448, 6.3584
197.753892, 44.322, 5.7156
198.120103, 44.197, 5.0369
198.486314, 44.072, 4.3229
198.852525, 43.947, 3.5740
199.218735, 43.823, 2.7909
199.584946, 43.699, 1.9744
199.951157, 43.575, 1.1249
200.317368, 43.451, 0.2434
200.683579, 43.328, -0.6696
201.049790, 43.205, -1.6130
201.416001, 43.083, -2.5863
201.782212, 42.961, -3.5885
202.148423, 42.839, -4.6189
202.514634, 42.718, -5.6765
202.880845, 42.598, -6.7604
203.247055, 42.478, -7.8699
203.613266, 42.358, -9.0039
203.979477, 42.239, -10.1616
204.345688, 42.120, -11.3420
204.711899, 42.003, -12.5443
205.078110, 41.885, -13.7676
205.444321, 41.769, -15.0107
205.810532, 41.653, -16.2731
206.176743, 41.537, -17.5536
206.542954, 41.423, -18.8514
206.909164, 41.309, -20.1658
207.275375, 41.196, -21.4957
207.641586, 41.083, -22.8405
208.007797, 40.972, -24.1992
208.374008, 40.861, -25.5712
208.740219, 40.751, -26.9557
209.106430, 40.642, -28.3521
209.472641, 40.534, -29.7594
209.838852, 40.427, -31.1774
210.205063, 40.321, -32.6051
210.571274, 40.215, -34.0421
210.937484, 40.111, -35.4880
211.303695, 40.007, -36.9421
211.669906, 39.905, -38.4041
212.036117, 39.803, -39.8734
212.402328, 39.702, -41.3497
212.768539, 39.603, -42.8329
213.134750, 39.504, -44.3224
213.500961, 39.407, -45.8181
213.867172, 39.310, -47.3197
214.233383, 39.215, -48.8271
214.599594, 39.120, -50.3402
214.965804, 39.027, -51.8588
215.332015, 38.935, -53.3828
215.698226, 38.843, -54.9123
216.064437, 38.753, -56.4473
216.430648, 38.664, -57.9877
216.796859, 38.576, -59.5337
217.163070, 38.489, -61.0853
217.529281, 38.403, -62.6428
217.895492, 38.318, -64.2062
218.261703, 38.234, -65.7756
218.627914, 38.151, -67.3516
218.994124, 38.070, -68.9340
219.360335, 37.989, -70.5233
219.726546, 37.909, -72.1198
220.092757, 37.831, -73.7235
220.458968, 37.753, -75.3351
220.825179, 37.677, -76.9546
221.191390, 37.601, -78.5825
221.557601, 37.527, -80.2191
221.923812, 37.454, -81.8648
222.290023, 37.382, -83.5199
222.656234, 37.311, -85.1848
223.022444, 37.241, -86.8598
223.388655, 37.172, -88.5453
223.754866, 37.104, -90.2418
224.121077, 37.037, -91.9495
224.487288, 36.971, -93.6687
224.853499, 36.906, -95.3999
225.219710, 36.842, -97.1434
225.585921, 36.779, -98.8995
225.952132, 36.718, -100.6687
226.318343, 36.657, -102.4510
226.684554, 36.597, -104.2471
227.050764, 36.539, -106.0569
227.416975, 36.481, -107.8809
227.783186, 36.425, -109.7193
228.149397, 36.369, -111.5723
228.515608, 36.315, -113.4402
228.881819, 36.262, -115.3232
229.248030, 36.209, -117.2215
229.614241, 36.158, -119.1351
229.980452, 36.107, -121.0645
230.346663, 36.058, -123.0093
230.712873, 36.010, -124.9700
231.079084, 35.962, -126.9465
231.445295, 35.916, -128.9390
231.811506, 35.870, -130.9474
232.177717, 35.826, -132.9717
232.543928, 35.782, -135.0120
232.910139, 35.740, -137.0680
233.276350, 35.698, -139.1399
233.642561, 35.658, -141.2274
234.008772, 35.618, -143.3306
234.374983, 35.579, -145.4491
234.741193, 35.541, -147.5829
235.107404, 35.504, -149.7317
235.473615, 35.468, -151.8953
235.839826, 35.432, -154.0735
236.206037, 35.398, -156.2659
236.572248, 35.364, -158.4724
236.938459, 35.331, -160.6926
237.304670, 35.299, -162.9261
237.670881, 35.267, -165.1726
238.037092, 35.236, -167.4317
238.403303, 35.206, -169.7029
238.769513, 35.177, -171.9860
239.135724, 35.148, -174.2804
239.501935, 35.120, -176.5857
239.868146, 35.092, -178.9013
240.234357, 35.065, 178.7731
240.600568, 35.038, 176.4381
240.966779, 35.012, 174.0942
241.332990, 34.986, 171.7419
241.699201, 34.961, 169.3819
242.065412, 34.936, 167.0146
242.431623, 34.912, 164.6405
242.797833, 34.887, 162.2603
243.164044, 34.864, 159.8746
243.530255, 34.840, 157.4838
243.896466, 34.817, 155.0887
244.262677, 34.794, 152.6898
244.628888, 34.771, 150.2877
244.995099, 34.748, 147.8830
245.361310, 34.725, 145.4763
245.727521, 34.703, 143.0682
246.093732, 34.681, 140.6593
246.459943, 34.658, 138.2502
246.826153, 34.636, 135.8416
247.192364, 34.614, 133.4340
247.558575, 34.592, 131.0280
247.924786, 34.570, 128.6241
248.290997, 34.547, 126.2231
248.657208, 34.525, 123.8256
249.023419, 34.503, 121.4319
249.389630, 34.481, 119.0428
249.755841, 34.458, 116.6588
250.122052, 34.436, 114.2805
250.488263, 34.413, 111.9083
250.854473, 34.391, 109.5430
251.220684, 34.368, 107.1849
251.586895, 34.345, 104.8347
251.953106, 34.322, 102.4927
252.319317, 34.299, 100.1597
252.685528, 34.276, 97.8359
253.051739, 34.253, 95.5220
253.417950, 34.229, 93.2184
253.784161, 34.206, 90.9255
254.150372, 34.182, 88.6439
254.516582, 34.158, 86.3738
254.882793, 34.134, 84.1158
255.249004, 34.110, 81.8703
255.615215, 34.086, 79.6376
255.981426, 34.062, 77.4182
256.347637, 34.038, 75.2123
256.713848, 34.013, 73.0204
257.080059, 33.989, 70.8428
257.446270, 33.964, 68.6797
257.812481, 33.939, 66.5316
258.178692, 33.915, 64.3986
258.544902, 33.890, 62.2811
258.911113, 33.865, 60.1791
259.277324, 33.840, 58.0932
259.643535, 33.815, 56.0234
260.009746, 33.789, 53.9698
260.375957, 33.764, 51.9327
260.742168, 33.739, 49.9123
261.108379, 33.714, 47.9086
261.474590, 33.688, 45.9218
261.840801, 33.663, 43.9519
262.207012, 33.637, 41.9990
262.573222, 33.612, 40.0632
262.939433, 33.586, 38.1445
263.305644, 33.561, 36.2428
263.671855, 33.535, 34.3582
264.038066, 33.509, 32.4906
264.404277, 33.483, 30.6399
264.770488, 33.458, 28.8061
265.136699, 33.432, 26.9890
265.502910, 33.406, 25.1885
265.869121, 33.380, 23.4045
266.235332, 33.354, 21.6367
266.601542, 33.328, 19.8850
266.967753, 33.302, 18.1492
267.333964, 33.276, 16.4288
267.700175, 33.250, 14.7239
268.066386, 33.224, 13.0340
268.432597, 33.198, 11.3588
268.798808, 33.171, 9.6980
269.165019, 33.145, 8.0513
269.531230, 33.119, 6.4182
269.897441, 33.092, 4.7984
270.263652, 33.066, 3.1915
270.629862, 33.039, 1.5970
270.996073, 33.012, 0.0145
271.362284, 32.985, -1.5566
271.728495, 32.958, -3.1164
272.094706, 32.931, -4.6658
272.460917, 32.904, -6.2052
272.827128, 32.877, -7.7350
273.193339, 32.850, -9.2559
273.559550, 32.822, -10.7685
273.925761, 32.794, -12.2731
274.291972, 32.767, -13.7707
274.658182, 32.739, -15.2617
275.024393, 32.710, -16.7465
275.390604, 32.682, -18.2261
275.756815, 32.654, -19.7011
276.123026, 32.625, -21.1719
276.489237, 32.596, -22.6395
276.855448, 32.567, -24.1043
277.221659, 32.538, -25.5671
277.587870, 32.509, -27.0286
