Freq(Hz), SPL(dB), Phase(degrees)
20.141602, 66.284, 46.2349
20.507812, 66.263, 46.3555
20.874023, 66.587, 44.4054
21.240234, 67.013, 41.6213
21.606445, 67.495, 38.1581
21.972656, 67.993, 34.1726
22.338867, 68.483, 29.8099
22.705078, 68.947, 25.1971
23.071289, 69.378, 20.4410
23.437500, 69.769, 15.6286
23.803711, 70.122, 10.8286
24.169922, 70.436, 6.0943
24.536132, 70.713, 1.4654
24.902343, 70.956, -3.0292
25.268554, 71.166, -7.3692
25.634765, 71.348, -11.5413
26.000976, 71.504, -15.5375
26.367187, 71.636, -19.3546
26.733398, 71.747, -22.9927
27.099609, 71.838, -26.4533
27.465820, 71.912, -29.7373
27.832031, 71.969, -32.8432
28.198242, 72.011, -35.7645
28.564452, 72.038, -38.4893
28.930663, 72.051, -40.9987
29.296874, 72.050, -43.2662
29.663085, 72.036, -45.2574
30.029296, 72.012, -46.9313
30.395507, 71.980, -48.2427
30.761718, 71.943, -49.1488
31.127929, 71.908, -49.6170
31.494140, 71.882, -49.6339
31.860351, 71.872, -49.2147
32.226562, 71.886, -48.4076
32.592772, 71.928, -47.2947
32.958983, 71.998, -45.9865
33.325194, 72.093, -44.6103
33.691405, 72.207, -43.2946
34.057616, 72.331, -42.1527
34.423827, 72.454, -41.2681
34.790038, 72.566, -40.6868
35.156249, 72.660, -40.4165
35.522460, 72.729, -40.4322
35.888671, 72.771, -40.6850
36.254882, 72.784, -41.1132
36.621092, 72.771, -41.6510
36.987303, 72.735, -42.2367
37.353514, 72.679, -42.8160
37.719725, 72.609, -43.3451
38.085936, 72.529, -43.7900
38.452147, 72.446, -44.1261
38.818358, 72.365, -44.3368
39.184569, 72.291, -44.4113
39.550780, 72.230, -44.3439
39.916991, 72.188, -44.1320
40.283201, 72.171, -43.7745
40.649412, 72.183, -43.2715
41.015623, 72.230, -42.6229
41.381834, 72.316, -41.8278
41.748045, 72.443, -40.8843
42.114256, 72.615, -39.7889
42.480467, 72.831, -38.5367
42.846678, 73.093, -37.1211
43.212889, 73.397, -35.5339
43.579100, 73.742, -33.7658
43.945311, 74.123, -31.8065
44.311521, 74.536, -29.6457
44.677732, 74.976, -27.2741
45.043943, 75.438, -24.6843
45.410154, 75.916, -21.8723
45.776365, 76.406, -18.8397
46.142576, 76.903, -15.5952
46.508787, 77.403, -12.1564
46.874998, 77.903, -8.5516
47.241209, 78.398, -4.8203
47.607420, 78.885, -1.0131
47.973631, 79.362, 2.8096
48.339841, 79.827, 6.5795
48.706052, 80.276, 10.2237
49.072263, 80.709, 13.6684
49.438474, 81.123, 16.8425
49.804685, 81.518, 19.6813
50.170896, 81.893, 22.1302
50.537107, 82.246, 24.1465
50.903318, 82.578, 25.7015
51.269529, 82.889, 26.7798
51.635740, 83.179, 27.3796
52.001951, 83.450, 27.5106
52.368161, 83.702, 27.1914
52.734372, 83.938, 26.4476
53.100583, 84.160, 25.3081
53.466794, 84.370, 23.8029
53.833005, 84.570, 21.9605
54.199216, 84.764, 19.8061
54.565427, 84.954, 17.3597
54.931638, 85.142, 14.6357
55.297849, 85.329, 11.6422
55.664060, 85.518, 8.3812
56.030271, 85.709, 4.8486
56.396481, 85.903, 1.0352
56.762692, 86.100, -3.0729
57.128903, 86.300, -7.4932
57.495114, 86.501, -12.2458
57.861325, 86.704, -17.3523
58.227536, 86.906, -22.8350
58.593747, 87.107, -28.7155
58.959958, 87.304, -35.0139
59.326169, 87.497, -41.7478
59.692380, 87.685, -48.9310
60.058591, 87.865, -56.5730
60.424801, 88.037, -64.6779
60.791012, 88.199, -73.2437
61.157223, 88.351, -82.2619
61.523434, 88.491, -91.7168
61.889645, 88.620, -101.5851
62.255856, 88.735, -111.8362
62.622067, 88.839, -122.4319
62.988278, 88.929, -133.3272
63.354489, 89.007, -144.4708
63.720700, 89.072, -155.8060
64.086910, 89.125, -167.2721
64.453121, 89.166, -178.8053
64.819332, 89.196, 169.6591
65.185543, 89.216, 158.1862
65.551754, 89.224, 146.8389
65.917965, 89.223, 135.6776
66.284176, 89.210, 124.7587
66.650387, 89.188, 114.1339
67.016598, 89.154, 103.8493
67.382809, 89.110, 93.9460
67.749020, 89.054, 84.4589
68.115230, 88.986, 75.4181
68.481441, 88.906, 66.8483
68.847652, 88.814, 58.7693
69.213863, 88.709, 51.1960
69.580074, 88.592, 44.1389
69.946285, 88.462, 37.6043
70.312496, 88.320, 31.5944
70.678707, 88.165, 26.1075
71.044918, 87.999, 21.1387
71.411129, 87.823, 16.6794
71.777340, 87.636, 12.7185
72.143550, 87.439, 9.2421
72.509761, 87.234, 6.2336
72.875972, 87.020, 3.6747
73.242183, 86.800, 1.5446
73.608394, 86.573, -0.1792
73.974605, 86.342, -1.5209
74.340816, 86.107, -2.5063
74.707027, 85.869, -3.1631
75.073238, 85.629, -3.5199
75.439449, 85.389, -3.6069
75.805660, 85.149, -3.4551
76.171870, 84.912, -3.0966
76.538081, 84.678, -2.5636
76.904292, 84.449, -1.8889
77.270503, 84.225, -1.1049
77.636714, 84.009, -0.2435
78.002925, 83.802, 0.6641
78.369136, 83.604, 1.5883
78.735347, 83.417, 2.5010
79.101558, 83.242, 3.3760
79.467769, 83.079, 4.1891
79.833980, 82.930, 4.9185
80.200190, 82.794, 5.5444
80.566401, 82.671, 6.0497
80.932612, 82.563, 6.4191
81.298823, 82.469, 6.6395
81.665034, 82.388, 6.6996
82.031245, 82.320, 6.5897
82.397456, 82.265, 6.3018
82.763667, 82.221, 5.8287
83.129878, 82.189, 5.1647
83.496089, 82.167, 4.3044
83.862300, 82.154, 3.2437
84.228510, 82.150, 1.9786
84.594721, 82.153, 0.5062
84.960932, 82.162, -1.1761
85.327143, 82.176, -3.0705
85.693354, 82.195, -5.1783
86.059565, 82.217, -7.5005
86.425776, 82.240, -10.0372
86.791987, 82.265, -12.7881
87.158198, 82.290, -15.7518
87.524409, 82.314, -18.9266
87.890619, 82.337, -22.3098
88.256830, 82.357, -25.8978
88.623041, 82.374, -29.6864
88.989252, 82.387, -33.6704
89.355463, 82.395, -37.8438
89.721674, 82.398, -42.1995
90.087885, 82.395, -46.7299
90.454096, 82.386, -51.4263
90.820307, 82.371, -56.2791
91.186518, 82.348, -61.2782
91.552729, 82.319, -66.4124
91.918939, 82.281, -71.6696
92.285150, 82.236, -77.0377
92.651361, 82.183, -82.5033
93.017572, 82.122, -88.0528
93.383783, 82.053, -93.6722
93.749994, 81.976, -99.3469
94.116205, 81.891, -105.0625
94.482416, 81.798, -110.8041
94.848627, 81.699, -116.5569
95.214838, 81.591, -122.3062
95.581049, 81.477, -128.0375
95.947259, 81.357, -133.7366
96.313470, 81.230, -139.3899
96.679681, 81.097, -144.9840
97.045892, 80.959, -150.5063
97.412103, 80.816, -155.9450
97.778314, 80.667, -161.2888
98.144525, 80.515, -166.5275
98.510736, 80.358, -171.6517
98.876947, 80.198, -176.6528
99.243158, 80.035, 178.4767
99.609369, 79.868, 173.7437
99.975579, 79.699, 169.1538
100.341790, 79.528, 164.7124
100.708001, 79.355, 160.4237
101.074212, 79.180, 156.2916
101.440423, 79.003, 152.3191
101.806634, 78.826, 148.5090
102.172845, 78.647, 144.8635
102.539056, 78.468, 141.3844
102.905267, 78.287, 138.0734
103.271478, 78.106, 134.9316
103.637689, 77.925, 131.9601
104.003899, 77.743, 129.1597
104.370110, 77.561, 126.5309
104.736321, 77.378, 124.0742
105.102532, 77.194, 121.7896
105.468743, 77.010, 119.6770
105.834954, 76.826, 117.7360
106.201165, 76.640, 115.9661
106.567376, 76.454, 114.3660
106.933587, 76.268, 112.9344
107.299798, 76.080, 111.6697
107.666009, 75.892, 110.5693
108.032219, 75.702, 109.6309
108.398430, 75.512, 108.8510
108.764641, 75.321, 108.2261
109.130852, 75.129, 107.7518
109.497063, 74.935, 107.4237
109.863274, 74.741, 107.2365
110.229485, 74.546, 107.1844
110.595696, 74.350, 107.2615
110.961907, 74.154, 107.4613
111.328118, 73.956, 107.7769
111.694328, 73.758, 108.2012
112.060539, 73.560, 108.7266
112.426750, 73.362, 109.3456
112.792961, 73.163, 110.0504
113.159172, 72.964, 110.8331
113.525383, 72.765, 111.6857
113.891594, 72.567, 112.6003
114.257805, 72.368, 113.5689
114.624016, 72.171, 114.5839
114.990227, 71.974, 115.6376
115.356438, 71.779, 116.7224
115.722648, 71.584, 117.8312
116.088859, 71.391, 118.9568
116.455070, 71.200, 120.0927
116.821281, 71.010, 121.2323
117.187492, 70.823, 122.3694
117.553703, 70.637, 123.4984
117.919914, 70.454, 124.6135
118.286125, 70.273, 125.7098
118.652336, 70.095, 126.7824
119.018547, 69.919, 127.8268
119.384758, 69.746, 128.8389
119.750968, 69.576, 129.8148
120.117179, 69.409, 130.7509
120.483390, 69.245, 131.6441
120.849601, 69.085, 132.4914
121.215812, 68.927, 133.2900
121.582023, 68.773, 134.0375
121.948234, 68.621, 134.7315
122.314445, 68.473, 135.3701
122.680656, 68.327, 135.9512
123.046867, 68.185, 136.4731
123.413078, 68.045, 136.9343
123.779288, 67.908, 137.3331
124.145499, 67.774, 137.6683
124.511710, 67.642, 137.9385
124.877921, 67.513, 138.1423
125.244132, 67.386, 138.2784
125.610343, 67.261, 138.3459
125.976554, 67.138, 138.3433
126.342765, 67.018, 138.2693
126.708976, 66.899, 138.1229
127.075187, 66.781, 137.9026
127.441398, 66.666, 137.6071
127.807608, 66.552, 137.2350
128.173819, 66.439, 136.7850
128.540030, 66.328, 136.2555
128.906241, 66.219, 135.6450
129.272452, 66.111, 134.9519
129.638663, 66.004, 134.1747
130.004874, 65.898, 133.3119
130.371085, 65.794, 132.3618
130.737296, 65.691, 131.3228
131.103507, 65.590, 130.1935
131.469718, 65.489, 128.9725
131.835928, 65.390, 127.6583
132.202139, 65.293, 126.2496
132.568350, 65.196, 124.7455
132.934561, 65.101, 123.1448
133.300772, 65.007, 121.4467
133.666983, 64.914, 119.6506
134.033194, 64.822, 117.7561
134.399405, 64.731, 115.7629
134.765616, 64.642, 113.6713
135.131827, 64.553, 111.4814
135.498037, 64.465, 109.1940
135.864248, 64.379, 106.8101
136.230459, 64.293, 104.3309
136.596670, 64.207, 101.7580
136.962881, 64.123, 99.0936
137.329092, 64.039, 96.3397
137.695303, 63.955, 93.4991
138.061514, 63.872, 90.5748
138.427725, 63.789, 87.5704
138.793936, 63.707, 84.4894
139.160147, 63.624, 81.3361
139.526357, 63.541, 78.1148
139.892568, 63.459, 74.8303
140.258779, 63.376, 71.4877
140.624990, 63.292, 68.0923
140.991201, 63.208, 64.6499
141.357412, 63.124, 61.1663
141.723623, 63.039, 57.6475
142.089834, 62.953, 54.0999
142.456045, 62.867, 50.5299
142.822256, 62.780, 46.9442
143.188467, 62.691, 43.3495
143.554677, 62.602, 39.7524
143.920888, 62.512, 36.1597
144.287099, 62.420, 32.5782
144.653310, 62.328, 29.0146
145.019521, 62.234, 25.4755
145.385732, 62.138, 21.9675
145.751943, 62.042, 18.4968
146.118154, 61.944, 15.0695
146.484365, 61.845, 11.6918
146.850576, 61.744, 8.3692
147.216787, 61.642, 5.1072
147.582997, 61.539, 1.9111
147.949208, 61.433, -1.2145
148.315419, 61.327, -4.2649
148.681630, 61.219, -7.2357
149.047841, 61.109, -10.1232
149.414052, 60.998, -12.9238
149.780263, 60.885, -15.6341
150.146474, 60.771, -18.2515
150.512685, 60.655, -20.7733
150.878896, 60.538, -23.1973
151.245107, 60.419, -25.5216
151.611317, 60.298, -27.7448
151.977528, 60.176, -29.8655
152.343739, 60.053, -31.8831
152.709950, 59.928, -33.7968
153.076161, 59.801, -35.6061
153.442372, 59.673, -37.3115
153.808583, 59.543, -38.9128
154.174794, 59.412, -40.4106
154.541005, 59.280, -41.8059
154.907216, 59.146, -43.0992
155.273427, 59.011, -44.2919
155.639637, 58.874, -45.3854
156.005848, 58.736, -46.3810
156.372059, 58.597, -47.2804
156.738270, 58.456, -48.0856
157.104481, 58.314, -48.7983
157.470692, 58.171, -49.4207
157.836903, 58.027, -49.9550
158.203114, 57.881, -50.4032
158.569325, 57.735, -50.7679
158.935536, 57.587, -51.0513
159.301746, 57.438, -51.2559
159.667957, 57.289, -51.3842
160.034168, 57.138, -51.4386
160.400379, 56.986, -51.4218
160.766590, 56.833, -51.3364
161.132801, 56.680, -51.1847
161.499012, 56.525, -50.9695
161.865223, 56.370, -50.6934
162.231434, 56.214, -50.3587
162.597645, 56.057, -49.9682
162.963856, 55.899, -49.5243
163.330066, 55.741, -49.0294
163.696277, 55.582, -48.4860
164.062488, 55.422, -47.8965
164.428699, 55.261, -47.2634
164.794910, 55.101, -46.5887
165.161121, 54.939, -45.8750
165.527332, 54.777, -45.1244
165.893543, 54.614, -44.3389
166.259754, 54.451, -43.5207
166.625965, 54.288, -42.6719
166.992176, 54.124, -41.7944
167.358386, 53.960, -40.8900
167.724597, 53.795, -39.9608
168.090808, 53.630, -39.0082
168.457019, 53.465, -38.0343
168.823230, 53.299, -37.0405
169.189441, 53.134, -36.0283
169.555652, 52.968, -34.9993
169.921863, 52.801, -33.9551
170.288074, 52.635, -32.8966
170.654285, 52.469, -31.8256
171.020496, 52.302, -30.7430
171.386706, 52.135, -29.6501
171.752917, 51.969, -28.5480
172.119128, 51.802, -27.4377
172.485339, 51.635, -26.3202
172.851550, 51.468, -25.1965
173.217761, 51.301, -24.0674
173.583972, 51.134, -22.9338
173.950183, 50.968, -21.7963
174.316394, 50.801, -20.6559
174.682605, 50.635, -19.5131
175.048816, 50.468, -18.3685
175.415026, 50.302, -17.2228
175.781237, 50.136, -16.0766
176.147448, 49.970, -14.9304
176.513659, 49.804, -13.7843
176.879870, 49.639, -12.6392
177.246081, 49.474, -11.4954
177.612292, 49.309, -10.3531
177.978503, 49.144, -9.2128
178.344714, 48.980, -8.0748
178.710925, 48.816, -6.9393
179.077136, 48.652, -5.8066
179.443346, 48.489, -4.6771
179.809557, 48.326, -3.5508
180.175768, 48.163, -2.4280
180.541979, 48.001, -1.3091
180.908190, 47.839, -0.1940
181.274401, 47.677, 0.9171
181.640612, 47.516, 2.0237
182.006823, 47.355, 3.1260
182.373034, 47.195, 4.2237
182.739245, 47.036, 5.3166
183.105455, 46.876, 6.4045
183.471666, 46.718, 7.4873
183.837877, 46.560, 8.5648
184.204088, 46.402, 9.6368
184.570299, 46.245, 10.7031
184.936510, 46.089, 11.7634
185.302721, 45.933, 12.8176
185.668932, 45.777, 13.8654
186.035143, 45.623, 14.9066
186.401354, 45.469, 15.9409
186.767565, 45.315, 16.9680
187.133775, 45.163, 17.9876
187.499986, 45.011, 18.9995
187.866197, 44.860, 20.0032
188.232408, 44.710, 20.9985
188.598619, 44.560, 21.9849
188.964830, 44.411, 22.9623
189.331041, 44.264, 23.9302
189.697252, 44.117, 24.8881
190.063463, 43.971, 25.8358
190.429674, 43.826, 26.7728
190.795885, 43.682, 27.6989
191.162095, 43.539, 28.6135
191.528306, 43.397, 29.5164
191.894517, 43.256, 30.4070
192.260728, 43.116, 31.2852
192.626939, 42.978, 32.1504
192.993150, 42.840, 33.0024
193.359361, 42.704, 33.8409
193.725572, 42.569, 34.6655
194.091783, 42.436, 35.4759
194.457994, 42.304, 36.2718
194.824205, 42.173, 37.0530
195.190415, 42.044, 37.8192
195.556626, 41.916, 38.5702
195.922837, 41.790, 39.3057
196.289048, 41.665, 40.0258
196.655259, 41.542, 40.7300
197.021470, 41.420, 41.4184
197.387681, 41.300, 42.0908
197.753892, 41.182, 42.7471
198.120103, 41.066, 43.3873
198.486314, 40.951, 44.0115
198.852525, 40.839, 44.6194
199.218735, 40.728, 45.2112
199.584946, 40.619, 45.7869
199.951157, 40.511, 46.3467
200.317368, 40.406, 46.8904
200.683579, 40.303, 47.4185
201.049790, 40.202, 47.9307
201.416001, 40.103, 48.4275
201.782212, 40.005, 48.9089
202.148423, 39.910, 49.3751
202.514634, 39.817, 49.8263
202.880845, 39.726, 50.2628
203.247055, 39.637, 50.6848
203.613266, 39.550, 51.0925
203.979477, 39.465, 51.4862
204.345688, 39.383, 51.8662
204.711899, 39.302, 52.2328
205.078110, 39.224, 52.5862
205.444321, 39.147, 52.9268
205.810532, 39.073, 53.2548
206.176743, 39.001, 53.5707
206.542954, 38.931, 53.8746
206.909164, 38.863, 54.1671
207.275375, 38.796, 54.4482
207.641586, 38.732, 54.7184
208.007797, 38.670, 54.9780
208.374008, 38.610, 55.2274
208.740219, 38.552, 55.4668
209.106430, 38.496, 55.6966
209.472641, 38.442, 55.9171
209.838852, 38.390, 56.1286
210.205063, 38.339, 56.3314
210.571274, 38.290, 56.5259
210.937484, 38.244, 56.7122
211.303695, 38.198, 56.8907
211.669906, 38.155, 57.0618
212.036117, 38.113, 57.2255
212.402328, 38.073, 57.3822
212.768539, 38.035, 57.5322
213.134750, 37.998, 57.6757
213.500961, 37.963, 57.8128
213.867172, 37.929, 57.9438
214.233383, 37.897, 58.0690
214.599594, 37.866, 58.1885
214.965804, 37.837, 58.3024
215.332015, 37.809, 58.4111
215.698226, 37.782, 58.5144
216.064437, 37.756, 58.6127
216.430648, 37.732, 58.7061
216.796859, 37.709, 58.7946
217.163070, 37.687, 58.8784
217.529281, 37.667, 58.9575
217.895492, 37.647, 59.0321
218.261703, 37.629, 59.1021
218.627914, 37.611, 59.1677
218.994124, 37.595, 59.2288
219.360335, 37.580, 59.2856
219.726546, 37.565, 59.3380
220.092757, 37.551, 59.3859
220.458968, 37.539, 59.4296
220.825179, 37.527, 59.4689
221.191390, 37.515, 59.5038
221.557601, 37.505, 59.5343
221.923812, 37.495, 59.5604
222.290023, 37.486, 59.5820
222.656234, 37.477, 59.5992
223.022444, 37.470, 59.6119
223.388655, 37.462, 59.6201
223.754866, 37.455, 59.6236
224.121077, 37.449, 59.6225
224.487288, 37.443, 59.6168
224.853499, 37.438, 59.6064
225.219710, 37.432, 59.5913
225.585921, 37.428, 59.5714
225.952132, 37.423, 59.5468
226.318343, 37.419, 59.5173
226.684554, 37.415, 59.4830
227.050764, 37.411, 59.4438
227.416975, 37.408, 59.3998
227.783186, 37.404, 59.3510
228.149397, 37.401, 59.2973
228.515608, 37.398, 59.2388
228.881819, 37.394, 59.1754
229.248030, 37.391, 59.1072
229.614241, 37.388, 59.0342
229.980452, 37.385, 58.9565
230.346663, 37.382, 58.8740
230.712873, 37.378, 58.7869
231.079084, 37.375, 58.6953
231.445295, 37.372, 58.5990
231.811506, 37.368, 58.4983
232.177717, 37.364, 58.3931
232.543928, 37.360, 58.2837
232.910139, 37.356, 58.1700
233.276350, 37.352, 58.0522
233.642561, 37.347, 57.9303
234.008772, 37.343, 57.8045
234.374983, 37.338, 57.6748
234.741193, 37.333, 57.5414
235.107404, 37.327, 57.4044
235.473615, 37.322, 57.2639
235.839826, 37.316, 57.1199
236.206037, 37.310, 56.9727
236.572248, 37.303, 56.8223
236.938459, 37.297, 56.6689
237.304670, 37.290, 56.5126
237.670881, 37.282, 56.3535
238.037092, 37.275, 56.1918
238.403303, 37.267, 56.0275
238.769513, 37.259, 55.8608
239.135724, 37.251, 55.6918
239.501935, 37.243, 55.5208
239.868146, 37.234, 55.3476
240.234357, 37.225, 55.1725
240.600568, 37.216, 54.9958
240.966779, 37.206, 54.8173
241.332990, 37.197, 54.6373
241.699201, 37.187, 54.4559
242.065412, 37.177, 54.2732
242.431623, 37.167, 54.0893
242.797833, 37.156, 53.9044
243.164044, 37.145, 53.7185
243.530255, 37.135, 53.5318
243.896466, 37.124, 53.3444
244.262677, 37.112, 53.1564
244.628888, 37.101, 52.9680
244.995099, 37.090, 52.7792
245.361310, 37.078, 52.5901
245.727521, 37.066, 52.4010
246.093732, 37.054, 52.2119
246.459943, 37.042, 52.0228
246.826153, 37.030, 51.8340
247.192364, 37.018, 51.6457
247.558575, 37.005, 51.4578
247.924786, 36.992, 51.2706
248.290997, 36.980, 51.0842
248.657208, 36.967, 50.8986
249.023419, 36.954, 50.7141
249.389630, 36.941, 50.5308
249.755841, 36.928, 50.3488
250.122052, 36.914, 50.1683
250.488263, 36.901, 49.9896
250.854473, 36.887, 49.8125
251.220684, 36.874, 49.6375
251.586895, 36.860, 49.4645
251.953106, 36.846, 49.2939
252.319317, 36.832, 49.1257
252.685528, 36.818, 48.9602
253.051739, 36.803, 48.7975
253.417950, 36.789, 48.6378
253.784161, 36.774, 48.4812
254.150372, 36.759, 48.3280
254.516582, 36.744, 48.1783
254.882793, 36.729, 48.0323
255.249004, 36.714, 47.8903
255.615215, 36.698, 47.7523
255.981426, 36.683, 47.6186
256.347637, 36.667, 47.4893
256.713848, 36.651, 47.3646
257.080059, 36.635, 47.2448
257.446270, 36.618, 47.1299
257.812481, 36.602, 47.0201
258.178692, 36.585, 46.9156
258.544902, 36.568, 46.8167
258.911113, 36.551, 46.7233
259.277324, 36.533, 46.6357
259.643535, 36.515, 46.5541
260.009746, 36.498, 46.4786
260.375957, 36.479, 46.4093
260.742168, 36.461, 46.3464
261.108379, 36.443, 46.2900
261.474590, 36.424, 46.2402
261.840801, 36.405, 46.1971
262.207012, 36.385, 46.1609
262.573222, 36.366, 46.1317
262.939433, 36.346, 46.1095
263.305644, 36.326, 46.0945
263.671855, 36.306, 46.0867
264.038066, 36.285, 46.0864
264.404277, 36.264, 46.0934
264.770488, 36.243, 46.1079
265.136699, 36.222, 46.1300
265.502910, 36.200, 46.1597
265.869121, 36.178, 46.1971
266.235332, 36.156, 46.2422
266.601542, 36.133, 46.2952
266.967753, 36.110, 46.3559
267.333964, 36.087, 46.4246
267.700175, 36.063, 46.5011
268.066386, 36.039, 46.5856
268.432597, 36.015, 46.6780
268.798808, 35.991, 46.7784
269.165019, 35.966, 46.8868
269.531230, 35.941, 47.0032
269.897441, 35.915, 47.1277
270.263652, 35.889, 47.2602
270.629862, 35.863, 47.4008
270.996073, 35.836, 47.5493
271.362284, 35.809, 47.7059
271.728495, 35.782, 47.8705
272.094706, 35.754, 48.0430
272.460917, 35.726, 48.2236
272.827128, 35.697, 48.4122
273.193339, 35.668, 48.6086
273.559550, 35.639, 48.8130
273.925761, 35.609, 49.0253
274.291972, 35.578, 49.2455
274.658182, 35.548, 49.4734
275.024393, 35.517, 49.7090
275.390604, 35.485, 49.9525
275.756815, 35.453, 50.2035
276.123026, 35.421, 50.4622
276.489237, 35.388, 50.7283
276.855448, 35.355, 51.0020
277.221659, 35.321, 51.2830
277.587870, 35.287, 51.5715
277.954081, 35.252, 51.8671
278.320291, 35.217, 52.1700
278.686502, 35.181, 52.4799
279.052713, 35.145, 52.7969
279.418924, 35.109, 53.1207
279.785135, 35.072, 53.4514
